17, 132, 543
17, 132, 543
17, 132, 529
17, 132, 533
18, 132, 527
18, 132, 535
18, 132, 521
18, 132, 534
19, 133, 520
19, 133, 526
19, 133, 514
19, 133, 536
20, 133, 512
20, 133, 516
20, 133, 510
20, 133, 537
21, 133, 517
21, 133, 521
21, 133, 512
21, 133, 536
22, 131, 520
22, 131, 527
22, 131, 519
22, 131, 529
23, 130, 517
23, 130, 526
23, 130, 520
23, 130, 524
24, 129, 514
24, 129, 521
24, 129, 514
24, 129, 523
25, 129, 515
25, 129, 526
25, 129, 517
25, 129, 523
26, 129, 517
26, 129, 523
26, 129, 514
26, 129, 522
27, 128, 517
27, 128, 519
27, 128, 510
27, 128, 516
28, 126, 513
28, 126, 514
28, 126, 505
28, 126, 510
29, 123, 514
29, 123, 502
29, 123, 492
29, 123, 499
30, 127, 512
30, 127, 506
30, 127, 502
30, 127, 513
31, 124, 519
31, 124, 507
31, 124, 492
31, 124, 500
31, 124, 519
31, 124, 507
31, 124, 492
31, 124, 500
33, 127, 525
33, 127, 508
33, 127, 510
33, 127, 514
34, 133, 510
34, 133, 520
34, 133, 516
34, 133, 539
35, 134, 524
35, 134, 533
35, 134, 527
35, 134, 543
36, 133, 524
36, 133, 532
36, 133, 521
36, 133, 536
37, 131, 521
37, 131, 531
37, 131, 523
37, 131, 529
38, 129, 518
38, 129, 524
38, 129, 512
38, 129, 521
39, 128, 513
39, 128, 519
39, 128, 513
39, 128, 515
40, 127, 506
40, 127, 511
40, 127, 504
40, 127, 512
41, 125, 503
41, 125, 507
41, 125, 496
41, 125, 507
42, 138, 504
42, 138, 529
42, 138, 537
42, 138, 556
43, 77, 537
43, 77, 510
43, 77, 427
43, 77, 308
44, 35, 185
44, 35, 125
44, 35, 136
44, 35, 147
45, 94, 140
45, 94, 149
45, 94, 247
45, 94, 383
46, 224, 563
46, 224, 741
46, 224, 900
46, 224, 900
47, 168, 814
47, 168, 754
47, 168, 703
47, 168, 675
48, 138, 638
48, 138, 613
48, 138, 572
48, 138, 553
49, 125, 527
49, 125, 518
49, 125, 502
49, 125, 500
0, 119, 486
0, 119, 487
0, 119, 476
0, 119, 476
1, 113, 463
1, 113, 467
1, 113, 454
1, 113, 455
2, 109, 451
2, 109, 446
2, 109, 432
2, 109, 440
3, 107, 437
3, 107, 440
3, 107, 428
3, 107, 435
4, 105, 435
4, 105, 432
4, 105, 419
4, 105, 425
5, 101, 423
5, 101, 419
5, 101, 408
5, 101, 406
6, 96, 398
6, 96, 396
6, 96, 387
6, 96, 388
7, 94, 385
7, 94, 388
7, 94, 377
7, 94, 379
8, 90, 378
8, 90, 376
8, 90, 362
8, 90, 360
9, 87, 358
9, 87, 359
9, 87, 350
9, 87, 355
10, 89, 358
10, 89, 363
10, 89, 350
10, 89, 360
11, 90, 361
11, 90, 367
11, 90, 359
11, 90, 366
12, 94, 364
12, 94, 372
12, 94, 368
12, 94, 382
13, 105, 383
13, 105, 396
13, 105, 396
13, 105, 427
14, 123, 428
14, 123, 449
14, 123, 455
14, 123, 499
15, 139, 495
15, 139, 516
15, 139, 518
15, 139, 560
16, 146, 551
16, 146, 564
16, 146, 562
16, 146, 590
17, 146, 575
17, 146, 589
17, 146, 581
17, 146, 591
18, 146, 585
18, 146, 591
18, 146, 583
18, 146, 591
19, 146, 585
19, 146, 591
19, 146, 582
19, 146, 591
20, 146, 583
20, 146, 591
20, 146, 582
20, 146, 588
21, 141, 574
21, 141, 579
21, 141, 563
21, 141, 568
22, 138, 560
22, 138, 560
22, 138, 550
22, 138, 556
23, 136, 568
23, 136, 556
23, 136, 542
23, 136, 551
24, 136, 563
24, 136, 550
24, 136, 540
24, 136, 551
25, 136, 558
25, 136, 547
25, 136, 542
25, 136, 550
25, 136, 558
25, 136, 547
25, 136, 542
25, 136, 550
27, 137, 560
27, 137, 543
27, 137, 543
27, 137, 552
28, 138, 542
28, 138, 543
28, 138, 538
28, 138, 556
29, 138, 535
29, 138, 540
29, 138, 536
29, 138, 558
30, 135, 536
30, 135, 542
30, 135, 539
30, 135, 547
31, 134, 536
31, 134, 540
31, 134, 533
31, 134, 542
32, 132, 531
32, 132, 535
32, 132, 527
32, 132, 534
33, 128, 521
33, 128, 524
33, 128, 515
33, 128, 519
34, 128, 510
34, 128, 516
34, 128, 515
34, 128, 519
35, 129, 511
35, 129, 520
35, 129, 512
35, 129, 522
36, 129, 514
36, 129, 518
36, 129, 511
36, 129, 522
37, 131, 516
37, 131, 521
37, 131, 516
37, 131, 530
38, 129, 520
38, 129, 524
38, 129, 510
38, 129, 522
39, 130, 515
39, 130, 520
39, 130, 510
39, 130, 524
40, 129, 517
40, 129, 519
40, 129, 513
40, 129, 523
41, 126, 517
41, 126, 519
41, 126, 505
41, 126, 510
42, 126, 502
42, 126, 506
42, 126, 499
42, 126, 511
43, 129, 510
43, 129, 520
43, 129, 512
43, 129, 520
44, 129, 520
44, 129, 524
44, 129, 514
44, 129, 520
45, 129, 515
45, 129, 523
45, 129, 516
45, 129, 521
46, 129, 520
46, 129, 523
46, 129, 514
46, 129, 521
47, 128, 520
47, 128, 523
47, 128, 514
47, 128, 519
48, 129, 517
48, 129, 519
48, 129, 514
48, 129, 522
49, 128, 522
49, 128, 522
49, 128, 511
49, 128, 519
0, 129, 518
0, 129, 522
0, 129, 516
0, 129, 520
1, 129, 521
1, 129, 519
1, 129, 512
1, 129, 522
2, 133, 521
2, 133, 523
2, 133, 517
2, 133, 537
3, 127, 555
3, 127, 560
3, 127, 534
3, 127, 508
4, 26, 448
4, 26, 335
4, 26, 198
4, 26, 107
5, 30, 95
5, 30, 120
5, 30, 105
5, 30, 127
6, 178, 247
6, 178, 389
6, 178, 549
6, 178, 719
7, 194, 895
7, 194, 905
7, 194, 827
7, 194, 778
8, 160, 732
8, 160, 707
8, 160, 659
8, 160, 643
9, 137, 606
9, 137, 583
9, 137, 548
9, 137, 550
10, 126, 518
10, 126, 512
10, 126, 492
10, 126, 508
11, 120, 486
11, 120, 483
11, 120, 471
11, 120, 487
12, 113, 463
12, 113, 462
12, 113, 449
12, 113, 459
13, 107, 441
13, 107, 446
13, 107, 427
13, 107, 432
14, 102, 415
14, 102, 419
14, 102, 409
14, 102, 415
15, 101, 403
15, 101, 414
15, 101, 403
15, 101, 408
16, 97, 396
16, 97, 404
16, 97, 389
16, 97, 392
17, 94, 381
17, 94, 388
17, 94, 377
17, 94, 383
18, 89, 372
18, 89, 373
18, 89, 359
18, 89, 363
19, 86, 363
19, 86, 358
19, 86, 345
19, 86, 351
20, 86, 350
20, 86, 350
20, 86, 344
20, 86, 350
21, 88, 355
21, 88, 352
21, 88, 344
21, 88, 356
21, 88, 355
21, 88, 352
21, 88, 344
21, 88, 356
23, 100, 381
23, 100, 379
23, 100, 390
23, 100, 405
24, 122, 422
24, 122, 444
24, 122, 455
24, 122, 493
25, 138, 486
25, 138, 504
25, 138, 516
25, 138, 556
26, 146, 547
26, 146, 567
26, 146, 570
26, 146, 591
27, 151, 588
27, 151, 600
27, 151, 595
27, 151, 611
28, 152, 603
28, 152, 611
28, 152, 604
28, 152, 615
29, 150, 608
29, 150, 614
29, 150, 601
29, 150, 604
30, 147, 591
30, 147, 595
30, 147, 588
30, 147, 590
31, 141, 579
31, 141, 579
31, 141, 566
31, 141, 569
32, 139, 568
32, 139, 569
32, 139, 556
32, 139, 560
33, 138, 551
33, 138, 556
33, 138, 545
33, 138, 556
34, 136, 547
34, 136, 550
34, 136, 540
34, 136, 550
35, 135, 543
35, 135, 551
35, 135, 542
35, 135, 547
36, 133, 540
36, 133, 543
36, 133, 531
36, 133, 537
37, 132, 531
37, 132, 536
37, 132, 526
37, 132, 532
38, 129, 528
38, 129, 532
38, 129, 518
38, 129, 522
39, 129, 517
39, 129, 523
39, 129, 516
39, 129, 521
40, 130, 516
40, 130, 524
40, 130, 517
40, 130, 527
41, 130, 522
41, 130, 529
41, 130, 519
41, 130, 526
42, 129, 521
42, 129, 527
42, 129, 516
42, 129, 520
43, 129, 521
43, 129, 521
43, 129, 514
43, 129, 520
44, 130, 520
44, 130, 524
44, 130, 518
44, 130, 527
45, 132, 528
45, 132, 531
45, 132, 526
45, 132, 534
46, 129, 532
46, 129, 531
46, 129, 518
46, 129, 519
47, 129, 520
47, 129, 523
47, 129, 514
47, 129, 521
48, 128, 519
48, 128, 518
48, 128, 512
48, 128, 516
49, 127, 518
49, 127, 518
49, 127, 509
49, 127, 513
0, 128, 512
0, 128, 516
0, 128, 508
0, 128, 516
1, 127, 516
1, 127, 517
1, 127, 510
1, 127, 514
2, 126, 511
2, 126, 512
2, 126, 503
2, 126, 511
3, 127, 509
3, 127, 518
3, 127, 508
3, 127, 515
4, 125, 509
4, 125, 507
4, 125, 498
4, 125, 507
5, 130, 503
5, 130, 512
5, 130, 504
5, 130, 527
6, 134, 512
6, 134, 520
6, 134, 509
6, 134, 540
7, 136, 526
7, 136, 523
7, 136, 519
7, 136, 551
8, 134, 531
8, 134, 535
8, 134, 527
8, 134, 543
9, 131, 522
9, 131, 526
9, 131, 517
9, 131, 531
10, 130, 516
10, 130, 524
10, 130, 514
10, 130, 526
11, 130, 518
11, 130, 526
11, 130, 519
11, 130, 527
12, 129, 513
12, 129, 518
12, 129, 508
12, 129, 521
13, 131, 515
13, 131, 529
13, 131, 519
13, 131, 528
14, 130, 520
14, 130, 526
14, 130, 518
14, 130, 526
15, 138, 529
15, 138, 551
15, 138, 553
15, 138, 557
16, 68, 540
16, 68, 487
16, 68, 387
16, 68, 275
17, 50, 176
17, 50, 169
17, 50, 191
17, 50, 206
18, 123, 195
18, 123, 247
18, 123, 335
18, 123, 496
18, 123, 195
18, 123, 247
18, 123, 335
18, 123, 496
20, 168, 833
20, 168, 737
20, 168, 699
20, 168, 673
21, 133, 591
21, 133, 561
21, 133, 534
21, 133, 535
22, 123, 501
22, 123, 498
22, 123, 485
22, 123, 499
23, 118, 472
23, 118, 473
23, 118, 463
23, 118, 479
24, 114, 455
24, 114, 463
24, 114, 451
24, 114, 460
25, 108, 445
25, 108, 451
25, 108, 435
25, 108, 435
26, 104, 425
26, 104, 427
26, 104, 415
26, 104, 423
27, 102, 414
27, 102, 415
27, 102, 409
27, 102, 412
28, 97, 399
28, 97, 401
28, 97, 389
28, 97, 395
29, 93, 388
29, 93, 389
29, 93, 375
29, 93, 378
30, 88, 368
30, 88, 368
30, 88, 353
30, 88, 355
31, 81, 344
31, 81, 344
31, 81, 327
31, 81, 329
32, 79, 319
32, 79, 323
32, 79, 313
32, 79, 323
33, 80, 319
33, 80, 326
33, 80, 317
33, 80, 326
34, 82, 327
34, 82, 335
34, 82, 327
34, 82, 335
35, 89, 335
35, 89, 345
35, 89, 344
35, 89, 363
36, 104, 367
36, 104, 389
36, 104, 395
36, 104, 423
37, 122, 435
37, 122, 460
37, 122, 470
37, 122, 492
38, 135, 505
38, 135, 524
38, 135, 532
38, 135, 547
39, 143, 551
39, 143, 563
39, 143, 568
39, 143, 577
40, 146, 583
40, 146, 589
40, 146, 585
40, 146, 591
41, 145, 591
41, 145, 591
41, 145, 582
41, 145, 587
42, 144, 583
42, 144, 583
42, 144, 575
42, 144, 582
43, 142, 579
43, 142, 581
43, 142, 568
43, 142, 571
44, 138, 569
44, 138, 563
44, 138, 553
44, 138, 556
45, 137, 560
45, 137, 561
45, 137, 551
45, 137, 551
46, 136, 553
46, 136, 554
46, 136, 543
46, 136, 551
47, 136, 551
47, 136, 551
47, 136, 543
47, 136, 551
48, 135, 556
48, 135, 555
48, 135, 543
48, 135, 547
49, 136, 551
49, 136, 553
49, 136, 543
49, 136, 551
0, 137, 550
0, 137, 557
0, 137, 547
0, 137, 554
1, 137, 543
1, 137, 547
1, 137, 541
1, 137, 555
2, 139, 543
2, 139, 547
2, 139, 537
2, 139, 563
3, 139, 547
3, 139, 551
3, 139, 539
3, 139, 563
4, 139, 542
4, 139, 543
4, 139, 533
4, 139, 560
5, 137, 540
5, 137, 543
5, 137, 537
5, 137, 554
6, 133, 537
6, 133, 542
6, 133, 530
6, 133, 537
7, 130, 525
7, 130, 531
7, 130, 519
7, 130, 526
8, 128, 512
8, 128, 518
8, 128, 510
8, 128, 516
9, 130, 510
9, 130, 519
9, 130, 513
9, 130, 525
10, 128, 516
10, 128, 522
10, 128, 510
10, 128, 519
11, 131, 520
11, 131, 526
11, 131, 519
11, 131, 530
12, 128, 537
12, 128, 524
12, 128, 512
12, 128, 518
13, 127, 526
13, 127, 517
13, 127, 506
13, 127, 512
14, 127, 523
14, 127, 512
14, 127, 504
14, 127, 512
14, 127, 523
14, 127, 512
14, 127, 504
14, 127, 512
16, 127, 521
16, 127, 508
16, 127, 512
16, 127, 510
17, 128, 499
17, 128, 504
17, 128, 497
17, 128, 518
18, 124, 499
18, 124, 499
18, 124, 487
18, 124, 500
19, 120, 476
19, 120, 480
19, 120, 470
19, 120, 487
20, 122, 478
20, 122, 486
20, 122, 479
20, 122, 495
21, 125, 489
21, 125, 502
21, 125, 495
21, 125, 506
22, 125, 500
22, 125, 505
22, 125, 501
22, 125, 507
23, 124, 501
23, 124, 508
23, 124, 499
23, 124, 503
24, 124, 500
24, 124, 506
24, 124, 495
24, 124, 501
25, 124, 499
25, 124, 500
25, 124, 493
25, 124, 502
26, 125, 497
26, 125, 499
26, 125, 494
26, 125, 507
27, 126, 503
27, 126, 507
27, 126, 495
27, 126, 509
28, 126, 502
28, 126, 508
28, 126, 498
28, 126, 509
29, 130, 502
29, 130, 505
29, 130, 506
29, 130, 527
30, 121, 536
30, 121, 545
30, 121, 516
30, 121, 486
31, 34, 392
31, 34, 270
31, 34, 159
31, 34, 137
32, 50, 161
32, 50, 179
32, 50, 178
32, 50, 207
33, 190, 306
33, 190, 443
33, 190, 611
33, 190, 767
34, 186, 908
34, 186, 900
34, 186, 813
34, 186, 747
35, 145, 699
35, 145, 663
35, 145, 615
35, 145, 583
36, 120, 542
36, 120, 517
36, 120, 487
36, 120, 483
37, 115, 476
37, 115, 476
37, 115, 462
37, 115, 463
38, 111, 460
38, 111, 462
38, 111, 444
38, 111, 447
39, 108, 447
39, 108, 448
39, 108, 435
39, 108, 433
40, 104, 428
40, 104, 428
40, 104, 417
40, 104, 422
41, 102, 419
41, 102, 422
41, 102, 408
41, 102, 415
42, 98, 411
42, 98, 411
42, 98, 394
42, 98, 395
43, 93, 392
43, 93, 389
43, 93, 375
43, 93, 374
44, 90, 371
44, 90, 374
44, 90, 361
44, 90, 366
45, 86, 361
45, 86, 359
45, 86, 344
45, 86, 348
46, 83, 341
46, 83, 345
46, 83, 335
46, 83, 335
47, 82, 332
47, 82, 335
47, 82, 323
47, 82, 332
48, 87, 327
48, 87, 335
48, 87, 332
48, 87, 353
49, 90, 335
49, 90, 348
49, 90, 344
49, 90, 367
0, 97, 358
0, 97, 369
0, 97, 366
0, 97, 395
1, 109, 392
1, 109, 409
1, 109, 409
1, 109, 440
2, 126, 444
2, 126, 467
2, 126, 476
2, 126, 508
3, 139, 515
3, 139, 539
3, 139, 543
3, 139, 563
4, 146, 565
4, 146, 579
4, 146, 575
4, 146, 591
5, 150, 590
5, 150, 604
5, 150, 591
5, 150, 605
6, 150, 600
6, 150, 604
6, 150, 598
6, 150, 606
7, 147, 600
7, 147, 601
7, 147, 588
7, 147, 591
8, 145, 591
8, 145, 591
8, 145, 579
8, 145, 587
9, 143, 591
9, 143, 582
9, 143, 572
9, 143, 575
10, 138, 579
10, 138, 564
10, 138, 550
10, 138, 556
11, 135, 561
11, 135, 547
11, 135, 533
11, 135, 547
11, 135, 561
11, 135, 547
11, 135, 533
11, 135, 547
13, 134, 558
13, 134, 540
13, 134, 535
13, 134, 543
14, 139, 534
14, 139, 542
14, 139, 536
14, 139, 560
15, 137, 535
15, 137, 541
15, 137, 536
15, 137, 555
16, 136, 531
16, 136, 536
16, 136, 528
16, 136, 549
17, 138, 540
17, 138, 550
17, 138, 543
17, 138, 557
18, 136, 547
18, 136, 555
18, 136, 543
18, 136, 551
19, 137, 543
19, 137, 552
19, 137, 550
19, 137, 553
20, 134, 542
20, 134, 543
20, 134, 539
20, 134, 540
21, 134, 534
21, 134, 540
21, 134, 532
21, 134, 540
22, 133, 533
22, 133, 540
22, 133, 531
22, 133, 536
23, 132, 531
23, 132, 532
23, 132, 525
23, 132, 534
24, 133, 527
24, 133, 536
24, 133, 527
24, 133, 538
25, 131, 531
25, 131, 535
25, 131, 523
25, 131, 530
26, 130, 526
26, 130, 533
26, 130, 523
26, 130, 527
27, 129, 523
27, 129, 524
27, 129, 515
27, 129, 520
28, 127, 512
28, 127, 518
28, 127, 509
28, 127, 514
29, 125, 505
29, 125, 512
29, 125, 502
29, 125, 507
30, 125, 498
30, 125, 504
30, 125, 500
30, 125, 507
31, 127, 505
31, 127, 514
31, 127, 506
31, 127, 512
32, 124, 504
32, 124, 500
32, 124, 492
32, 124, 501
33, 126, 504
33, 126, 510
33, 126, 498
33, 126, 508
34, 127, 510
34, 127, 515
34, 127, 503
34, 127, 513
35, 127, 512
35, 127, 512
35, 127, 503
35, 127, 512
36, 127, 513
36, 127, 513
36, 127, 506
36, 127, 515
37, 126, 513
37, 126, 518
37, 126, 507
37, 126, 508
38, 123, 505
38, 123, 504
38, 123, 494
38, 123, 499
39, 123, 504
39, 123, 506
39, 123, 494
39, 123, 498
40, 121, 495
40, 121, 495
40, 121, 483
40, 121, 488
41, 119, 487
41, 119, 491
41, 119, 479
41, 119, 483
42, 120, 480
42, 120, 481
42, 120, 472
42, 120, 486
43, 125, 497
43, 125, 516
43, 125, 514
43, 125, 500
44, 37, 462
44, 37, 380
44, 37, 247
44, 37, 149
45, 38, 127
45, 38, 166
45, 38, 155
45, 38, 159
46, 156, 185
46, 156, 291
46, 156, 422
46, 156, 629
47, 201, 764
47, 201, 895
47, 201, 856
47, 201, 807
48, 155, 711
48, 155, 671
48, 155, 634
48, 155, 622
49, 124, 567
49, 124, 538
49, 124, 508
49, 124, 498
0, 115, 473
0, 115, 472
0, 115, 460
0, 115, 463
1, 109, 447
1, 109, 454
1, 109, 438
1, 109, 442
2, 103, 428
2, 103, 432
2, 103, 412
2, 103, 419
3, 98, 404
3, 98, 408
3, 98, 392
3, 98, 397
4, 95, 389
4, 95, 393
4, 95, 383
4, 95, 386
5, 92, 383
5, 92, 382
5, 92, 369
5, 92, 375
6, 89, 376
6, 89, 368
6, 89, 355
6, 89, 360
7, 84, 358
7, 84, 351
7, 84, 335
7, 84, 342
8, 80, 342
8, 80, 335
8, 80, 323
8, 80, 327
8, 80, 342
8, 80, 335
8, 80, 323
8, 80, 327
10, 79, 323
10, 79, 315
10, 79, 318
10, 79, 321
11, 86, 319
11, 86, 332
11, 86, 329
11, 86, 349
12, 90, 339
12, 90, 352
12, 90, 348
12, 90, 367
13, 99, 359
13, 99, 375
13, 99, 375
13, 99, 400
14, 110, 399
14, 110, 417
14, 110, 422
14, 110, 446
15, 127, 455
15, 127, 476
15, 127, 486
15, 127, 513
16, 139, 519
16, 139, 540
16, 139, 551
16, 139, 563
17, 144, 563
17, 144, 575
17, 144, 575
17, 144, 582
18, 143, 577
18, 143, 579
18, 143, 573
18, 143, 579
19, 144, 576
19, 144, 583
19, 144, 575
19, 144, 583
20, 143, 577
20, 143, 579
20, 143, 569
20, 143, 579
21, 142, 569
21, 142, 574
21, 142, 563
21, 142, 574
22, 139, 560
22, 139, 564
22, 139, 556
22, 139, 561
23, 136, 556
23, 136, 558
23, 136, 545
23, 136, 550
24, 133, 543
24, 133, 545
24, 133, 534
24, 133, 537
25, 131, 528
25, 131, 530
25, 131, 523
25, 131, 529
26, 130, 519
26, 130, 526
26, 130, 516
26, 130, 524
27, 130, 518
27, 130, 527
27, 130, 518
27, 130, 524
28, 130, 515
28, 130, 523
28, 130, 516
28, 130, 526
29, 129, 521
29, 129, 523
29, 129, 515
29, 129, 520
30, 129, 519
30, 129, 524
30, 129, 512
30, 129, 522
31, 130, 525
31, 130, 524
31, 130, 519
31, 130, 524
32, 130, 524
32, 130, 528
32, 130, 516
32, 130, 526
33, 130, 524
33, 130, 524
33, 130, 516
33, 130, 524
34, 129, 522
34, 129, 525
34, 129, 512
34, 129, 521
35, 127, 520
35, 127, 520
35, 127, 508
35, 127, 512
36, 124, 509
36, 124, 507
36, 124, 497
36, 124, 502
37, 123, 501
37, 123, 500
37, 123, 491
37, 123, 496
38, 123, 495
38, 123, 496
38, 123, 487
38, 123, 498
39, 124, 499
39, 124, 500
39, 124, 495
39, 124, 503
40, 123, 504
40, 123, 504
40, 123, 492
40, 123, 497
41, 124, 493
41, 124, 500
41, 124, 495
41, 124, 502
42, 123, 495
42, 123, 498
42, 123, 487
42, 123, 498
43, 125, 485
43, 125, 488
43, 125, 481
43, 125, 505
44, 126, 489
44, 126, 492
44, 126, 486
44, 126, 510
45, 123, 486
45, 123, 486
45, 123, 470
45, 123, 497
46, 124, 481
46, 124, 490
46, 124, 484
46, 124, 503
47, 124, 489
47, 124, 500
47, 124, 493
47, 124, 501
48, 125, 496
48, 125, 504
48, 125, 495
48, 125, 505
49, 127, 500
49, 127, 512
49, 127, 503
49, 127, 514
0, 127, 505
0, 127, 511
0, 127, 502
0, 127, 515
1, 126, 507
1, 126, 515
1, 126, 504
1, 126, 511
2, 127, 505
2, 127, 512
2, 127, 503
2, 127, 512
3, 125, 510
3, 125, 508
3, 125, 495
3, 125, 504
4, 124, 512
4, 124, 504
4, 124, 492
4, 124, 501
5, 124, 511
5, 124, 499
5, 124, 491
5, 124, 503
6, 136, 513
6, 136, 522
6, 136, 533
6, 136, 551
6, 136, 513
6, 136, 522
6, 136, 533
6, 136, 551
8, 42, 182
8, 42, 127
8, 42, 159
8, 42, 172
9, 149, 169
9, 149, 278
9, 149, 391
9, 149, 600
10, 210, 735
10, 210, 901
10, 210, 902
10, 210, 843
11, 161, 746
11, 161, 703
11, 161, 659
11, 161, 647
12, 130, 595
12, 130, 563
12, 130, 528
12, 130, 520
13, 119, 495
13, 119, 493
13, 119, 479
13, 119, 480
14, 112, 470
14, 112, 471
14, 112, 455
14, 112, 451
15, 111, 443
15, 111, 451
15, 111, 444
15, 111, 448
16, 108, 439
16, 108, 444
16, 108, 432
16, 108, 438
17, 106, 432
17, 106, 432
17, 106, 423
17, 106, 428
18, 102, 415
18, 102, 422
18, 102, 408
18, 102, 415
19, 98, 406
19, 98, 406
19, 98, 393
19, 98, 399
20, 94, 386
20, 94, 391
20, 94, 375
20, 94, 380
21, 88, 371
21, 88, 372
21, 88, 352
21, 88, 357
22, 83, 348
22, 83, 348
22, 83, 333
22, 83, 333
23, 80, 325
23, 80, 327
23, 80, 316
23, 80, 325
24, 82, 319
24, 82, 331
24, 82, 323
24, 82, 335
25, 86, 332
25, 86, 344
25, 86, 334
25, 86, 348
26, 91, 345
26, 91, 359
26, 91, 353
26, 91, 369
27, 102, 374
27, 102, 389
27, 102, 393
27, 102, 413
28, 117, 427
28, 117, 444
28, 117, 449
28, 117, 473
29, 132, 491
29, 132, 507
29, 132, 513
29, 132, 533
30, 140, 547
30, 140, 558
30, 140, 556
30, 140, 566
31, 142, 572
31, 142, 574
31, 142, 568
31, 142, 575
32, 144, 575
32, 144, 579
32, 144, 574
32, 144, 582
33, 144, 583
33, 144, 583
33, 144, 576
33, 144, 579
34, 143, 579
34, 143, 579
34, 143, 572
34, 143, 575
35, 140, 574
35, 140, 569
35, 140, 561
35, 140, 563
36, 138, 560
36, 138, 560
36, 138, 549
36, 138, 556
37, 136, 554
37, 136, 554
37, 136, 540
37, 136, 549
38, 134, 543
38, 134, 545
38, 134, 536
38, 134, 543
39, 137, 540
39, 137, 543
39, 137, 531
39, 137, 554
40, 135, 535
40, 135, 540
40, 135, 527
40, 135, 547
41, 135, 533
41, 135, 533
41, 135, 522
41, 135, 547
42, 132, 525
42, 132, 528
42, 132, 518
42, 132, 534
43, 130, 520
43, 130, 527
43, 130, 516
43, 130, 524
44, 129, 515
44, 129, 527
44, 129, 515
44, 129, 520
45, 130, 513
45, 130, 523
45, 130, 515
45, 130, 526
46, 129, 515
46, 129, 526
46, 129, 514
46, 129, 522
47, 130, 516
47, 130, 529
47, 130, 516
47, 130, 526
48, 130, 520
48, 130, 527
48, 130, 518
48, 130, 527
49, 130, 528
49, 130, 529
49, 130, 519
49, 130, 527
0, 132, 541
0, 132, 533
0, 132, 526
0, 132, 532
1, 128, 539
1, 128, 523
1, 128, 511
1, 128, 518
2, 130, 529
2, 130, 517
2, 130, 511
2, 130, 525
2, 130, 529
2, 130, 517
2, 130, 511
2, 130, 525
4, 130, 536
4, 130, 523
4, 130, 521
4, 130, 522
5, 131, 509
5, 131, 518
5, 131, 509
5, 131, 530
6, 131, 511
6, 131, 514
6, 131, 508
6, 131, 528
7, 127, 506
7, 127, 507
7, 127, 498
7, 127, 512
8, 121, 496
8, 121, 499
8, 121, 487
8, 121, 491
9, 120, 480
9, 120, 487
9, 120, 480
9, 120, 487
10, 121, 483
10, 121, 489
10, 121, 484
10, 121, 485
11, 118, 472
11, 118, 470
11, 118, 463
11, 118, 479
12, 122, 475
12, 122, 489
12, 122, 483
12, 122, 493
13, 123, 491
13, 123, 497
13, 123, 487
13, 123, 499
14, 125, 496
14, 125, 503
14, 125, 493
14, 125, 507
15, 128, 508
15, 128, 514
15, 128, 507
15, 128, 519
16, 127, 512
16, 127, 516
16, 127, 511
16, 127, 515
17, 129, 509
17, 129, 516
17, 129, 512
17, 129, 522
18, 130, 518
18, 130, 525
18, 130, 516
18, 130, 524
19, 128, 517
19, 128, 519
19, 128, 508
19, 128, 516
20, 126, 511
20, 126, 513
20, 126, 499
20, 126, 508
21, 127, 505
21, 127, 510
21, 127, 503
21, 127, 512
22, 134, 517
22, 134, 543
22, 134, 542
22, 134, 542
23, 58, 512
23, 58, 463
23, 58, 348
23, 58, 233
24, 43, 127
24, 43, 146
24, 43, 163
24, 43, 178
25, 127, 151
25, 127, 236
25, 127, 335
25, 127, 513
26, 214, 679
26, 214, 847
26, 214, 918
26, 214, 856
27, 161, 779
27, 161, 711
27, 161, 670
27, 161, 644
28, 131, 609
28, 131, 575
28, 131, 537
28, 131, 525
29, 120, 508
29, 120, 500
29, 120, 483
29, 120, 486
30, 115, 479
30, 115, 476
30, 115, 460
30, 115, 460
31, 110, 455
31, 110, 455
31, 110, 440
31, 110, 441
32, 105, 435
32, 105, 435
32, 105, 419
32, 105, 426
33, 103, 421
33, 103, 423
33, 103, 414
33, 103, 419
34, 100, 413
34, 100, 415
34, 100, 401
34, 100, 405
35, 98, 399
35, 98, 401
35, 98, 386
35, 98, 397
36, 94, 383
36, 94, 390
36, 94, 374
36, 94, 383
37, 90, 361
37, 90, 359
37, 90, 345
37, 90, 364
38, 85, 342
38, 85, 344
38, 85, 329
38, 85, 345
39, 82, 326
39, 82, 332
39, 82, 319
39, 82, 335
40, 82, 321
40, 82, 332
40, 82, 323
40, 82, 335
41, 88, 334
41, 88, 350
41, 88, 344
41, 88, 359
42, 93, 352
42, 93, 369
42, 93, 361
42, 93, 376
43, 102, 374
43, 102, 392
43, 102, 394
43, 102, 415
44, 119, 423
44, 119, 447
44, 119, 454
44, 119, 480
45, 134, 489
45, 134, 508
45, 134, 516
45, 134, 543
46, 145, 566
46, 145, 566
46, 145, 568
46, 145, 585
47, 149, 608
47, 149, 595
47, 149, 591
47, 149, 603
48, 151, 619
48, 151, 607
48, 151, 598
48, 151, 608
48, 151, 619
48, 151, 607
48, 151, 598
48, 151, 608
0, 148, 615
0, 148, 591
0, 148, 590
0, 148, 596
1, 149, 579
1, 149, 583
1, 149, 579
1, 149, 601
2, 146, 575
2, 146, 582
2, 146, 572
2, 146, 591
3, 144, 564
3, 144, 572
3, 144, 566
3, 144, 583
4, 141, 565
4, 141, 569
4, 141, 555
4, 141, 571
5, 139, 558
5, 139, 563
5, 139, 554
5, 139, 561
6, 136, 551
6, 136, 557
6, 136, 547
6, 136, 551
7, 136, 543
7, 136, 548
7, 136, 545
7, 136, 547
8, 135, 543
8, 135, 548
8, 135, 539
8, 135, 547
9, 135, 543
9, 135, 551
9, 135, 542
9, 135, 547
10, 134, 543
10, 134, 545
10, 134, 535
10, 134, 543
11, 137, 543
11, 137, 547
11, 137, 537
11, 137, 554
12, 136, 550
12, 136, 551
12, 136, 541
12, 136, 551
13, 134, 543
13, 134, 547
13, 134, 536
13, 134, 537
14, 134, 535
14, 134, 542
14, 134, 535
14, 134, 543
15, 133, 537
15, 133, 540
15, 133, 533
15, 133, 536
16, 130, 527
16, 130, 530
16, 130, 521
16, 130, 527
17, 130, 522
17, 130, 526
17, 130, 516
17, 130, 525
18, 130, 521
18, 130, 527
18, 130, 520
18, 130, 527
19, 131, 522
19, 131, 524
19, 131, 518
19, 131, 530
20, 133, 531
20, 133, 536
20, 133, 531
20, 133, 539
21, 133, 537
21, 133, 535
21, 133, 527
21, 133, 536
22, 133, 540
22, 133, 543
22, 133, 531
22, 133, 536
23, 131, 534
23, 131, 535
23, 131, 527
23, 131, 531
24, 131, 527
24, 131, 527
24, 131, 522
24, 131, 529
25, 129, 529
25, 129, 528
25, 129, 518
25, 129, 520
26, 128, 523
26, 128, 520
26, 128, 512
26, 128, 519
27, 126, 516
27, 126, 518
27, 126, 506
27, 126, 510
28, 121, 505
28, 121, 499
28, 121, 479
28, 121, 489
29, 122, 492
29, 122, 494
29, 122, 487
29, 122, 495
30, 124, 499
30, 124, 506
30, 124, 499
30, 124, 503
31, 128, 504
31, 128, 514
31, 128, 507
31, 128, 518
32, 132, 515
32, 132, 520
32, 132, 514
32, 132, 535
33, 132, 514
33, 132, 520
33, 132, 510
33, 132, 532
34, 132, 517
34, 132, 521
34, 132, 508
34, 132, 535
35, 129, 512
35, 129, 515
35, 129, 504
35, 129, 523
36, 125, 503
36, 125, 510
36, 125, 495
36, 125, 504
37, 124, 495
37, 124, 505
37, 124, 496
37, 124, 503
38, 125, 493
38, 125, 502
38, 125, 494
38, 125, 504
39, 134, 504
39, 134, 531
39, 134, 536
39, 134, 543
40, 65, 508
40, 65, 479
40, 65, 379
40, 65, 262
41, 37, 138
41, 37, 131
41, 37, 151
41, 37, 153
42, 110, 127
42, 110, 188
42, 110, 287
42, 110, 444
43, 216, 636
43, 216, 792
43, 216, 902
43, 216, 865
44, 161, 806
44, 161, 719
44, 161, 671
44, 161, 644
45, 132, 624
45, 132, 577
45, 132, 535
45, 132, 529
45, 132, 624
45, 132, 577
45, 132, 535
45, 132, 529
47, 115, 487
47, 115, 472
47, 115, 463
47, 115, 467
48, 111, 444
48, 111, 447
48, 111, 438
48, 111, 451
49, 110, 430
49, 110, 438
49, 110, 428
49, 110, 444
0, 104, 423
0, 104, 428
0, 104, 414
0, 104, 423
1, 102, 412
1, 102, 415
1, 102, 403
1, 102, 412
2, 99, 403
2, 99, 408
2, 99, 398
2, 99, 403
3, 94, 390
3, 94, 394
3, 94, 379
3, 94, 378
4, 90, 368
4, 90, 372
4, 90, 361
4, 90, 361
5, 86, 354
5, 86, 358
5, 86, 345
5, 86, 350
6, 85, 345
6, 85, 348
6, 85, 335
6, 85, 344
7, 86, 343
7, 86, 348
7, 86, 339
7, 86, 348
8, 87, 345
8, 87, 352
8, 87, 344
8, 87, 355
9, 91, 350
9, 91, 359
9, 91, 357
9, 91, 370
10, 102, 375
10, 102, 389
10, 102, 390
10, 102, 413
11, 117, 425
11, 117, 446
11, 117, 451
11, 117, 475
12, 132, 486
12, 132, 509
12, 132, 514
12, 132, 532
13, 142, 540
13, 142, 556
13, 142, 556
13, 142, 574
14, 149, 577
14, 149, 590
14, 149, 585
14, 149, 600
15, 149, 591
15, 149, 600
15, 149, 590
15, 149, 600
16, 144, 589
16, 144, 591
16, 144, 576
16, 144, 582
17, 143, 582
17, 143, 583
17, 143, 575
17, 143, 579
18, 141, 583
18, 141, 577
18, 141, 566
18, 141, 570
19, 139, 569
19, 139, 566
19, 139, 553
19, 139, 560
20, 135, 560
20, 135, 560
20, 135, 543
20, 135, 547
21, 133, 543
21, 133, 543
21, 133, 532
21, 133, 538
22, 134, 540
22, 134, 543
22, 134, 536
22, 134, 540
23, 134, 542
23, 134, 543
23, 134, 537
23, 134, 543
24, 133, 543
24, 133, 543
24, 133, 532
24, 133, 536
25, 131, 535
25, 131, 534
25, 131, 522
25, 131, 530
26, 130, 527
26, 130, 530
26, 130, 518
26, 130, 527
27, 133, 526
27, 133, 535
27, 133, 529
27, 133, 537
28, 134, 536
28, 134, 543
28, 134, 531
28, 134, 543
29, 136, 529
29, 136, 538
29, 136, 531
29, 136, 551
30, 138, 534
30, 138, 536
30, 138, 527
30, 138, 556
31, 136, 534
31, 136, 535
31, 136, 524
31, 136, 550
32, 134, 527
32, 134, 530
32, 134, 523
32, 134, 543
33, 134, 527
33, 134, 536
33, 134, 529
33, 134, 540
34, 131, 531
34, 131, 536
34, 131, 526
34, 131, 531
35, 130, 522
35, 130, 531
35, 130, 517
35, 130, 526
36, 129, 516
36, 129, 528
36, 129, 518
36, 129, 523
37, 129, 517
37, 129, 521
37, 129, 511
37, 129, 522
38, 129, 520
38, 129, 525
38, 129, 513
38, 129, 523
39, 129, 530
39, 129, 521
39, 129, 515
39, 129, 521
40, 129, 531
40, 129, 524
40, 129, 516
40, 129, 523
41, 129, 530
41, 129, 519
41, 129, 512
41, 129, 523
42, 128, 532
42, 128, 516
42, 128, 505
42, 128, 518
42, 128, 532
42, 128, 516
42, 128, 505
42, 128, 518
44, 127, 500
44, 127, 512
44, 127, 525
44, 127, 510
45, 128, 510
45, 128, 516
45, 128, 524
45, 128, 514
46, 122, 512
46, 122, 507
46, 122, 498
46, 122, 489
47, 125, 492
47, 125, 500
47, 125, 504
47, 125, 503
48, 128, 503
48, 128, 508
48, 128, 506
48, 128, 516
49, 129, 515
49, 129, 520
49, 129, 514
49, 129, 520
0, 130, 525
0, 130, 529
0, 130, 515
0, 130, 525
1, 130, 525
1, 130, 534
1, 130, 521
1, 130, 526
2, 130, 526
2, 130, 529
2, 130, 519
2, 130, 526
3, 130, 523
3, 130, 524
3, 130, 520
3, 130, 524
4, 130, 527
4, 130, 530
4, 130, 523
4, 130, 524
4, 130, 523
4, 130, 524
4, 130, 521
4, 130, 525
5, 129, 520
5, 129, 523
5, 129, 516
5, 129, 522
6, 137, 526
6, 137, 543
6, 137, 550
6, 137, 553
7, 70, 538
7, 70, 499
7, 70, 412
7, 70, 283
8, 27, 176
8, 27, 95
8, 27, 91
8, 27, 115
9, 100, 102
9, 100, 134
9, 100, 241
9, 100, 407
10, 213, 582
10, 213, 753
10, 213, 887
10, 213, 854
11, 166, 785
11, 166, 732
11, 166, 694
11, 166, 667
12, 137, 632
12, 137, 598
12, 137, 564
12, 137, 550
13, 122, 526
13, 122, 512
13, 122, 492
13, 122, 491
14, 115, 483
14, 115, 480
14, 115, 463
14, 115, 463
15, 109, 457
15, 109, 454
15, 109, 436
15, 109, 440
16, 105, 434
16, 105, 432
16, 105, 417
16, 105, 425
17, 102, 422
17, 102, 419
17, 102, 404
17, 102, 413
18, 98, 408
18, 98, 404
18, 98, 388
18, 98, 396
19, 95, 394
19, 95, 397
19, 95, 382
19, 95, 387
20, 93, 386
20, 93, 387
20, 93, 374
20, 93, 379
21, 86, 372
21, 86, 366
21, 86, 345
21, 86, 351
22, 82, 347
22, 82, 345
22, 82, 327
22, 82, 332
23, 80, 332
23, 80, 334
23, 80, 318
23, 80, 327
24, 81, 327
24, 81, 334
24, 81, 327
24, 81, 331
25, 85, 335
25, 85, 344
25, 85, 344
25, 85, 346
26, 88, 350
26, 88, 353
26, 88, 358
26, 88, 358
27, 96, 362
27, 96, 376
27, 96, 379
27, 96, 391
28, 112, 406
28, 112, 425
28, 112, 440
28, 112, 455
29, 127, 473
29, 127, 493
29, 127, 499
29, 127, 512
30, 137, 527
30, 137, 543
30, 137, 543
30, 137, 555
31, 144, 568
31, 144, 582
31, 144, 579
31, 144, 579
32, 147, 588
32, 147, 595
32, 147, 590
32, 147, 590
33, 147, 588
33, 147, 591
33, 147, 589
33, 147, 591
34, 149, 588
34, 149, 591
34, 149, 587
34, 149, 601
35, 146, 582
35, 146, 583
35, 146, 572
35, 146, 588
37, 139, 556
37, 139, 558
37, 139, 547
37, 139, 560
38, 134, 537
38, 134, 540
38, 134, 529
38, 134, 543
39, 134, 526
39, 134, 531
39, 134, 521
39, 134, 540
40, 134, 518
40, 134, 525
40, 134, 522
40, 134, 541
41, 134, 516
41, 134, 524
41, 134, 523
41, 134, 543
42, 133, 521
42, 133, 531
42, 133, 521
42, 133, 537
43, 132, 521
43, 132, 529
43, 132, 520
43, 132, 532
44, 131, 523
44, 131, 530
44, 131, 523
44, 131, 531
45, 131, 520
45, 131, 529
45, 131, 522
45, 131, 529
46, 132, 526
46, 132, 533
46, 132, 529
46, 132, 535
47, 133, 528
47, 133, 536
47, 133, 530
47, 133, 537
48, 133, 536
48, 133, 540
48, 133, 533
48, 133, 539
49, 133, 534
49, 133, 535
49, 133, 528
49, 133, 538
0, 135, 533
0, 135, 539
0, 135, 533
0, 135, 545
1, 134, 536
1, 134, 543
1, 134, 534
1, 134, 543
2, 134, 537
2, 134, 543
2, 134, 533
2, 134, 542
3, 134, 536
3, 134, 543
3, 134, 532
3, 134, 542
4, 134, 539
4, 134, 545
4, 134, 535
4, 134, 541
5, 132, 536
5, 132, 540
5, 132, 528
5, 132, 532
6, 130, 525
6, 130, 527
6, 130, 518
6, 130, 524
7, 129, 524
7, 129, 524
7, 129, 515
7, 129, 523
8, 127, 518
8, 127, 520
8, 127, 510
8, 127, 512
9, 127, 518
9, 127, 519
9, 127, 509
9, 127, 511
10, 127, 507
10, 127, 507
10, 127, 502
10, 127, 513
11, 126, 515
11, 126, 515
11, 126, 503
11, 126, 508
12, 123, 495
12, 123, 497
12, 123, 489
12, 123, 496
13, 126, 498
13, 126, 502
13, 126, 499
13, 126, 511
14, 127, 512
14, 127, 517
14, 127, 507
14, 127, 515
15, 129, 516
15, 129, 519
15, 129, 516
15, 129, 522
16, 128, 522
16, 128, 524
16, 128, 514
16, 128, 517
17, 127, 515
17, 127, 516
17, 127, 507
17, 127, 512
18, 125, 509
18, 125, 511
18, 125, 501
18, 125, 503
19, 125, 496
19, 125, 500
19, 125, 493
19, 125, 506
20, 129, 502
20, 129, 512
20, 129, 503
20, 129, 520
21, 132, 514
21, 132, 514
21, 132, 508
21, 132, 532
22, 139, 518
22, 139, 512
22, 139, 512
22, 139, 560
23, 124, 548
23, 124, 551
23, 124, 515
23, 124, 496
24, 39, 380
24, 39, 268
24, 39, 158
24, 39, 158
25, 61, 184
25, 61, 214
25, 61, 191
25, 61, 248
26, 202, 352
26, 202, 503
26, 202, 656
26, 202, 814
27, 185, 927
27, 185, 895
27, 185, 803
27, 185, 743
28, 148, 691
28, 148, 669
28, 148, 616
28, 148, 595
29, 124, 551
29, 124, 536
29, 124, 505
29, 124, 497
30, 118, 487
30, 118, 481
30, 118, 463
30, 118, 476
31, 112, 472
31, 112, 457
31, 112, 447
31, 112, 455
32, 109, 454
32, 109, 444
32, 109, 433
32, 109, 440
33, 107, 447
33, 107, 435
33, 107, 425
33, 107, 435
33, 107, 447
33, 107, 435
33, 107, 425
33, 107, 435
35, 103, 432
35, 103, 419
35, 103, 414
35, 103, 417
36, 95, 398
36, 95, 396
36, 95, 380
36, 95, 383
37, 92, 371
37, 92, 374
37, 92, 359
37, 92, 375
38, 87, 350
38, 87, 352
38, 87, 344
38, 87, 355
39, 82, 335
39, 82, 335
39, 82, 326
39, 82, 335
40, 82, 329
40, 82, 335
40, 82, 323
40, 82, 335
41, 85, 334
41, 85, 345
41, 85, 344
41, 85, 345
42, 91, 345
42, 91, 357
42, 91, 353
42, 91, 369
43, 99, 364
43, 99, 378
43, 99, 377
43, 99, 400
44, 114, 406
44, 114, 428
44, 114, 436
44, 114, 463
45, 132, 479
45, 132, 505
45, 132, 508
45, 132, 534
46, 146, 542
46, 146, 561
46, 146, 568
46, 146, 591
47, 150, 595
47, 150, 603
47, 150, 600
47, 150, 605
48, 151, 604
48, 151, 611
48, 151, 608
48, 151, 608
49, 152, 611
49, 152, 611
49, 152, 601
49, 152, 615
0, 153, 614
0, 153, 615
0, 153, 608
0, 153, 617
1, 151, 611
1, 151, 617
1, 151, 604
1, 151, 609
2, 149, 606
2, 149, 608
2, 149, 598
2, 149, 601
3, 145, 587
3, 145, 591
3, 145, 579
3, 145, 587
4, 142, 579
4, 142, 577
4, 142, 568
4, 142, 575
5, 141, 574
5, 141, 568
5, 141, 561
5, 141, 568
6, 140, 568
6, 140, 566
6, 140, 556
6, 140, 566
7, 139, 563
7, 139, 563
7, 139, 556
7, 139, 558
8, 136, 560
8, 136, 560
8, 136, 547
8, 136, 550
9, 137, 556
9, 137, 560
9, 137, 547
9, 137, 553
10, 135, 551
10, 135, 551
10, 135, 540
10, 135, 545
11, 135, 545
11, 135, 545
11, 135, 537
11, 135, 545
12, 133, 537
12, 133, 542
12, 133, 530
12, 133, 537
13, 130, 533
13, 130, 532
13, 130, 520
13, 130, 527
14, 130, 534
14, 130, 525
14, 130, 515
14, 130, 526
15, 129, 522
15, 129, 527
15, 129, 515
15, 129, 522
16, 131, 519
16, 131, 526
16, 131, 519
16, 131, 529
17, 133, 524
17, 133, 529
17, 133, 519
17, 133, 539
18, 134, 525
18, 134, 523
18, 134, 509
18, 134, 540
19, 133, 521
19, 133, 523
19, 133, 510
19, 133, 537
20, 131, 516
20, 131, 520
20, 131, 511
20, 131, 528
21, 129, 510
21, 129, 520
21, 129, 508
21, 129, 520
22, 128, 513
22, 128, 521
22, 128, 513
22, 128, 519
23, 128, 511
23, 128, 522
23, 128, 512
23, 128, 519
24, 129, 512
24, 129, 516
24, 129, 508
24, 129, 520
25, 126, 509
25, 126, 515
25, 126, 500
25, 126, 508
26, 124, 500
26, 124, 505
26, 124, 491
26, 124, 501
27, 124, 500
27, 124, 501
27, 124, 492
27, 124, 503
28, 121, 513
28, 121, 504
28, 121, 485
28, 121, 486
29, 118, 483
29, 118, 477
29, 118, 470
29, 118, 479
30, 124, 498
30, 124, 494
30, 124, 489
30, 124, 502
30, 124, 498
30, 124, 494
30, 124, 489
30, 124, 502
32, 128, 521
32, 128, 509
32, 128, 512
32, 128, 519
33, 130, 510
33, 130, 514
33, 130, 507
33, 130, 527
34, 130, 505
34, 130, 513
34, 130, 508
34, 130, 524
35, 130, 503
35, 130, 516
35, 130, 504
35, 130, 524
36, 128, 510
36, 128, 519
36, 128, 509
36, 128, 519
37, 127, 513
37, 127, 518
37, 127, 508
37, 127, 514
38, 127, 505
38, 127, 511
38, 127, 504
38, 127, 512
39, 137, 517
39, 137, 543
39, 137, 550
39, 137, 554
40, 67, 521
40, 67, 486
40, 67, 379
40, 67, 269
41, 54, 163
41, 54, 191
41, 54, 216
41, 54, 220
42, 119, 214
42, 119, 260
42, 119, 329
42, 119, 483
43, 225, 652
43, 225, 806
43, 225, 931
43, 225, 901
44, 162, 806
44, 162, 739
44, 162, 678
44, 162, 649
45, 129, 607
45, 129, 572
45, 129, 531
45, 129, 516
46, 119, 497
46, 119, 493
46, 119, 479
46, 119, 480
47, 113, 463
47, 113, 472
47, 113, 451
47, 113, 457
48, 108, 444
48, 108, 447
48, 108, 432
48, 108, 435
49, 103, 425
49, 103, 430
49, 103, 419
49, 103, 415
0, 100, 408
0, 100, 412
0, 100, 401
0, 100, 403
1, 96, 398
1, 96, 399
1, 96, 385
1, 96, 391
2, 93, 389
2, 93, 387
2, 93, 373
2, 93, 374
3, 88, 367
3, 88, 369
3, 88, 353
3, 88, 353
4, 83, 350
4, 83, 347
4, 83, 334
4, 83, 339
5, 79, 332
5, 79, 329
5, 79, 318
5, 79, 323
6, 75, 312
6, 75, 307
6, 75, 296
6, 75, 304
7, 75, 302
7, 75, 307
7, 75, 298
7, 75, 304
8, 76, 307
8, 76, 312
8, 76, 304
8, 76, 310
9, 82, 316
9, 82, 326
9, 82, 319
9, 82, 335
10, 93, 344
10, 93, 358
10, 93, 359
10, 93, 379
11, 111, 393
11, 111, 414
11, 111, 423
11, 111, 449
12, 129, 463
12, 129, 491
12, 129, 500
12, 129, 520
13, 142, 531
13, 142, 547
13, 142, 551
13, 142, 572
14, 151, 572
14, 151, 583
14, 151, 579
14, 151, 608
15, 152, 588
15, 152, 596
15, 152, 588
15, 152, 615
16, 151, 591
16, 151, 591
16, 151, 581
16, 151, 609
17, 146, 583
17, 146, 583
17, 146, 576
17, 146, 591
18, 142, 574
18, 142, 579
18, 142, 569
18, 142, 575
19, 139, 562
19, 139, 567
19, 139, 558
19, 139, 563
20, 137, 551
20, 137, 558
20, 137, 543
20, 137, 552
21, 136, 540
21, 136, 551
21, 136, 543
21, 136, 551
22, 135, 538
22, 135, 547
22, 135, 536
22, 135, 547
23, 135, 542
23, 135, 543
23, 135, 535
23, 135, 545
24, 134, 547
24, 134, 543
24, 134, 531
24, 134, 540
25, 134, 547
25, 134, 541
25, 134, 533
25, 134, 541
26, 133, 548
26, 133, 539
26, 133, 528
26, 133, 536
27, 132, 543
27, 132, 529
27, 132, 520
27, 132, 532
27, 132, 543
27, 132, 529
27, 132, 520
27, 132, 532
29, 131, 539
29, 131, 523
29, 131, 522
29, 131, 528
30, 133, 517
30, 133, 524
30, 133, 516
30, 133, 536
31, 131, 516
31, 131, 519
31, 131, 511
31, 131, 531
32, 131, 512
32, 131, 520
32, 131, 511
32, 131, 528
33, 130, 514
33, 130, 521
33, 130, 517
33, 130, 527
34, 128, 517
34, 128, 522
34, 128, 512
34, 128, 516
35, 127, 507
35, 127, 514
35, 127, 508
35, 127, 514
36, 125, 506
36, 125, 511
36, 125, 501
36, 125, 503
37, 123, 492
37, 123, 496
37, 123, 484
37, 123, 496
38, 126, 494
38, 126, 503
38, 126, 497
38, 126, 508
39, 126, 504
39, 126, 512
39, 126, 501
39, 126, 510
40, 123, 501
40, 123, 505
40, 123, 489
40, 123, 496
41, 120, 489
41, 120, 494
41, 120, 480
41, 120, 487
42, 122, 487
42, 122, 492
42, 122, 483
42, 122, 493
43, 121, 487
43, 121, 493
43, 121, 483
43, 121, 489
44, 123, 483
44, 123, 489
44, 123, 483
44, 123, 498
45, 119, 492
45, 119, 495
45, 119, 479
45, 119, 479
46, 120, 467
46, 120, 476
46, 120, 476
46, 120, 487
47, 124, 490
47, 124, 495
47, 124, 489
47, 124, 502
48, 124, 499
48, 124, 503
48, 124, 497
48, 124, 503
49, 125, 503
49, 125, 506
49, 125, 501
49, 125, 507
0, 123, 505
0, 123, 503
0, 123, 494
0, 123, 496
1, 124, 499
1, 124, 506
1, 124, 493
1, 124, 502
2, 120, 496
2, 120, 496
2, 120, 483
2, 120, 487
3, 119, 488
3, 119, 486
3, 119, 473
3, 119, 483
4, 119, 480
4, 119, 479
4, 119, 472
4, 119, 480
5, 120, 484
5, 120, 487
5, 120, 481
5, 120, 486
6, 128, 487
6, 128, 491
6, 128, 494
6, 128, 518
7, 105, 526
7, 105, 515
7, 105, 472
7, 105, 422
8, 19, 312
8, 19, 191
8, 19, 89
8, 19, 79
9, 50, 92
9, 50, 105
9, 50, 97
9, 50, 204
10, 213, 334
10, 213, 512
10, 213, 655
10, 213, 859
11, 183, 880
11, 183, 819
11, 183, 748
11, 183, 732
12, 151, 684
12, 151, 653
12, 151, 608
12, 151, 607
13, 129, 555
13, 129, 536
13, 129, 507
13, 129, 521
14, 120, 490
14, 120, 485
14, 120, 467
14, 120, 484
15, 112, 460
15, 112, 463
15, 112, 448
15, 112, 451
16, 106, 435
16, 106, 440
16, 106, 423
16, 106, 428
17, 102, 415
17, 102, 423
17, 102, 409
17, 102, 415
18, 100, 406
18, 100, 415
18, 100, 402
18, 100, 407
19, 98, 396
19, 98, 407
19, 98, 392
19, 98, 398
20, 94, 383
20, 94, 391
20, 94, 375
20, 94, 382
21, 87, 370
21, 87, 367
21, 87, 350
21, 87, 352
22, 84, 352
22, 84, 350
22, 84, 335
22, 84, 340
23, 82, 342
23, 82, 340
23, 82, 326
23, 82, 335
24, 80, 320
24, 80, 323
24, 80, 316
24, 80, 327
24, 80, 320
24, 80, 323
24, 80, 316
24, 80, 327
26, 87, 351
26, 87, 342
26, 87, 348
26, 87, 353
27, 100, 364
27, 100, 379
27, 100, 382
27, 100, 406
28, 112, 398
28, 112, 415
28, 112, 421
28, 112, 455
29, 125, 451
29, 125, 473
29, 125, 479
29, 125, 507
30, 139, 512
30, 139, 536
30, 139, 537
30, 139, 560
31, 144, 560
31, 144, 575
31, 144, 574
31, 144, 582
32, 146, 581
32, 146, 591
32, 146, 588
32, 146, 591
33, 146, 582
33, 146, 588
33, 146, 576
33, 146, 588
34, 147, 583
34, 147, 590
34, 147, 579
34, 147, 595
35, 144, 588
35, 144, 587
35, 144, 575
35, 144, 583
36, 142, 575
36, 142, 572
36, 142, 568
36, 142, 575
37, 141, 562
37, 141, 566
37, 141, 558
37, 141, 568
38, 140, 560
38, 140, 563
38, 140, 558
38, 140, 564
39, 139, 563
39, 139, 566
39, 139, 555
39, 139, 561
40, 138, 556
40, 138, 563
40, 138, 555
40, 138, 556
41, 135, 547
41, 135, 551
41, 135, 547
41, 135, 543
42, 134, 541
42, 134, 543
42, 134, 536
42, 134, 538
43, 134, 538
43, 134, 543
43, 134, 529
43, 134, 540
44, 131, 533
44, 131, 537
44, 131, 527
44, 131, 531
45, 132, 525
45, 132, 532
45, 132, 526
45, 132, 534
46, 133, 534
46, 133, 533
46, 133, 526
46, 133, 536
47, 133, 537
47, 133, 538
47, 133, 531
47, 133, 539
48, 134, 545
48, 134, 551
48, 134, 539
48, 134, 543
49, 134, 541
49, 134, 545
49, 134, 535
49, 134, 543
0, 134, 543
0, 134, 543
0, 134, 536
0, 134, 543
1, 134, 543
1, 134, 545
1, 134, 531
1, 134, 540
2, 133, 536
2, 133, 539
2, 133, 531
2, 133, 537
3, 132, 537
3, 132, 539
3, 132, 528
3, 132, 534
4, 131, 536
4, 131, 537
4, 131, 527
4, 131, 531
5, 131, 532
5, 131, 536
5, 131, 526
5, 131, 527
6, 129, 521
6, 129, 519
6, 129, 510
6, 129, 520
7, 127, 511
7, 127, 513
7, 127, 502
7, 127, 513
8, 130, 512
8, 130, 514
8, 130, 504
8, 130, 524
9, 128, 499
9, 128, 502
9, 128, 504
9, 128, 519
10, 130, 503
10, 130, 511
10, 130, 499
10, 130, 526
11, 125, 502
11, 125, 503
11, 125, 488
11, 125, 506
12, 123, 487
12, 123, 496
12, 123, 493
12, 123, 499
13, 126, 497
13, 126, 508
13, 126, 504
13, 126, 510
14, 128, 503
14, 128, 512
14, 128, 505
14, 128, 518
15, 130, 509
15, 130, 521
15, 130, 515
15, 130, 526
16, 132, 522
16, 132, 533
16, 132, 534
16, 132, 534
17, 130, 523
17, 130, 529
17, 130, 520
17, 130, 520
18, 129, 524
18, 129, 519
18, 129, 512
18, 129, 520
19, 130, 526
19, 130, 516
19, 130, 512
19, 130, 527
20, 131, 538
20, 131, 532
20, 131, 515
20, 131, 529
21, 130, 536
21, 130, 523
21, 130, 511
21, 130, 526
21, 130, 536
21, 130, 523
21, 130, 511
21, 130, 526
23, 55, 484
23, 55, 398
23, 55, 287
23, 55, 220
24, 77, 235
24, 77, 269
24, 77, 294
24, 77, 315
25, 190, 381
25, 190, 487
25, 190, 634
25, 190, 767
26, 189, 863
26, 189, 888
26, 189, 825
26, 189, 759
27, 143, 683
27, 143, 654
27, 143, 612
27, 143, 575
28, 117, 521
28, 117, 498
28, 117, 470
28, 117, 468
29, 112, 457
29, 112, 460
29, 112, 449
29, 112, 451
30, 109, 441
30, 109, 440
30, 109, 433
30, 109, 442
31, 105, 428
31, 105, 432
31, 105, 415
31, 105, 425
32, 103, 423
32, 103, 423
32, 103, 411
32, 103, 419
33, 101, 415
33, 101, 408
33, 101, 401
33, 101, 409
34, 99, 403
34, 99, 404
34, 99, 392
34, 99, 401
35, 95, 387
35, 95, 386
35, 95, 380
35, 95, 380
36, 90, 369
36, 90, 379
36, 90, 361
36, 90, 361
37, 85, 353
37, 85, 355
37, 85, 335
37, 85, 344
38, 79, 327
38, 79, 335
38, 79, 319
38, 79, 323
39, 78, 316
39, 78, 323
39, 78, 309
39, 78, 318
40, 79, 319
40, 79, 323
40, 79, 312
40, 79, 321
41, 80, 319
41, 80, 329
41, 80, 323
41, 80, 327
42, 88, 332
42, 88, 344
42, 88, 342
42, 88, 359
43, 101, 359
43, 101, 377
43, 101, 383
43, 101, 409
44, 119, 419
44, 119, 443
44, 119, 455
44, 119, 480
45, 133, 499
45, 133, 517
45, 133, 527
45, 133, 537
46, 140, 550
46, 140, 560
46, 140, 560
46, 140, 566
47, 144, 572
47, 144, 591
47, 144, 575
47, 144, 583
48, 146, 586
48, 146, 587
48, 146, 583
48, 146, 589
49, 145, 586
49, 145, 590
49, 145, 579
49, 145, 585
0, 145, 586
0, 145, 585
0, 145, 575
0, 145, 587
1, 143, 591
1, 143, 585
1, 143, 575
1, 143, 579
2, 141, 575
2, 141, 582
2, 141, 563
2, 141, 568
3, 139, 566
3, 139, 569
3, 139, 553
3, 139, 563
4, 141, 556
4, 141, 558
4, 141, 550
4, 141, 568
5, 141, 543
5, 141, 551
5, 141, 543
5, 141, 568
6, 141, 560
6, 141, 551
6, 141, 540
6, 141, 568
7, 137, 540
7, 137, 543
7, 137, 536
7, 137, 553
8, 135, 539
8, 135, 539
8, 135, 529
8, 135, 545
9, 134, 532
9, 134, 547
9, 134, 536
9, 134, 543
10, 134, 535
10, 134, 547
10, 134, 537
10, 134, 541
11, 134, 534
11, 134, 542
11, 134, 531
11, 134, 540
12, 134, 531
12, 134, 537
12, 134, 531
12, 134, 540
13, 132, 529
13, 132, 534
13, 132, 524
13, 132, 535
14, 131, 532
14, 131, 531
14, 131, 523
14, 131, 529
15, 131, 539
15, 131, 529
15, 131, 528
15, 131, 525
16, 130, 535
16, 130, 523
16, 130, 514
16, 130, 526
17, 130, 530
17, 130, 523
17, 130, 516
17, 130, 527
17, 130, 530
17, 130, 523
17, 130, 516
17, 130, 527
19, 130, 536
19, 130, 522
19, 130, 523
19, 130, 526
20, 134, 518
20, 134, 524
20, 134, 519
20, 134, 541
21, 133, 517
21, 133, 524
21, 133, 515
21, 133, 536
22, 130, 514
22, 130, 521
22, 130, 512
22, 130, 524
23, 130, 512
23, 130, 521
23, 130, 511
23, 130, 524
24, 125, 499
24, 125, 506
24, 125, 498
24, 125, 506
25, 126, 502
25, 126, 511
25, 126, 503
25, 126, 508
26, 123, 499
26, 123, 496
26, 123, 491
26, 123, 499
27, 127, 493
27, 127, 504
27, 127, 500
27, 127, 514
28, 128, 514
28, 128, 516
28, 128, 507
28, 128, 517
29, 131, 512
29, 131, 521
29, 131, 516
29, 131, 530
30, 134, 528
30, 134, 531
30, 134, 527
30, 134, 540
31, 133, 537
31, 133, 542
31, 133, 532
31, 133, 537
32, 131, 528
32, 131, 536
32, 131, 525
32, 131, 531
33, 131, 529
33, 131, 539
33, 131, 525
33, 131, 531
34, 131, 529
34, 131, 531
34, 131, 523
34, 131, 531
35, 132, 526
35, 132, 530
35, 132, 523
35, 132, 533
36, 133, 526
36, 133, 532
36, 133, 525
36, 133, 537
37, 135, 550
37, 135, 566
37, 135, 558
37, 135, 543
38, 48, 494
38, 48, 401
38, 48, 277
38, 48, 193
39, 58, 198
39, 58, 239
39, 58, 225
39, 58, 239
40, 161, 263
40, 161, 353
40, 161, 472
40, 161, 651
41, 200, 786
41, 200, 914
41, 200, 883
41, 200, 801
42, 153, 732
42, 153, 683
42, 153, 646
42, 153, 613
43, 124, 568
43, 124, 536
43, 124, 512
43, 124, 497
44, 119, 495
44, 119, 488
44, 119, 478
44, 119, 483
45, 116, 480
45, 116, 480
45, 116, 467
45, 116, 467
46, 112, 463
46, 112, 463
46, 112, 451
46, 112, 455
47, 110, 455
47, 110, 455
47, 110, 443
47, 110, 444
48, 109, 444
48, 109, 444
48, 109, 433
48, 109, 440
49, 107, 438
49, 107, 444
49, 107, 429
49, 107, 432
0, 104, 425
0, 104, 432
0, 104, 413
0, 104, 421
1, 101, 408
1, 101, 409
1, 101, 392
1, 101, 408
2, 98, 391
2, 98, 393
2, 98, 383
2, 98, 399
3, 92, 375
3, 92, 371
3, 92, 355
3, 92, 373
4, 89, 352
4, 89, 355
4, 89, 348
4, 89, 363
5, 88, 348
5, 88, 358
5, 88, 350
5, 88, 358
6, 90, 352
6, 90, 364
6, 90, 358
6, 90, 366
7, 93, 356
7, 93, 365
7, 93, 358
7, 93, 377
8, 103, 377
8, 103, 393
8, 103, 398
8, 103, 419
9, 121, 428
9, 121, 454
9, 121, 462
9, 121, 488
10, 137, 499
10, 137, 524
10, 137, 532
10, 137, 553
11, 149, 566
11, 149, 576
11, 149, 575
11, 149, 600
12, 151, 619
12, 151, 609
12, 151, 604
12, 151, 611
13, 152, 629
13, 152, 612
13, 152, 607
13, 152, 615
14, 153, 632
14, 153, 617
14, 153, 607
14, 153, 619
14, 153, 632
14, 153, 617
14, 153, 607
14, 153, 619
16, 149, 621
16, 149, 600
16, 149, 598
16, 149, 600
17, 150, 583
17, 150, 587
17, 150, 583
17, 150, 604
18, 144, 575
18, 144, 579
18, 144, 571
18, 144, 583
19, 141, 560
19, 141, 563
19, 141, 556
19, 141, 568
20, 136, 551
20, 136, 556
20, 136, 543
20, 136, 551
21, 134, 540
21, 134, 547
21, 134, 537
21, 134, 542
22, 132, 532
22, 132, 540
22, 132, 529
22, 132, 531
23, 132, 526
23, 132, 531
23, 132, 525
23, 132, 532
24, 134, 527
24, 134, 533
24, 134, 532
24, 134, 540
25, 134, 536
25, 134, 543
25, 134, 535
25, 134, 542
26, 134, 536
26, 134, 542
26, 134, 531
26, 134, 541
27, 133, 535
27, 133, 536
27, 133, 527
27, 133, 536
28, 131, 527
28, 131, 533
28, 131, 525
28, 131, 529
29, 130, 525
29, 130, 529
29, 130, 519
29, 130, 525
30, 132, 525
30, 132, 531
30, 132, 526
30, 132, 532
31, 131, 526
31, 131, 531
31, 131, 524
31, 131, 526
32, 129, 520
32, 129, 524
32, 129, 516
32, 129, 521
33, 127, 516
33, 127, 519
33, 127, 508
33, 127, 514
34, 126, 507
34, 126, 509
34, 126, 502
34, 126, 508
35, 125, 505
35, 125, 506
35, 125, 495
35, 125, 505
36, 124, 506
36, 124, 507
36, 124, 499
36, 124, 503
37, 126, 498
37, 126, 504
37, 126, 499
37, 126, 509
38, 126, 509
38, 126, 515
38, 126, 504
38, 126, 510
39, 126, 508
39, 126, 508
39, 126, 503
39, 126, 510
40, 126, 510
40, 126, 509
40, 126, 502
40, 126, 509
41, 127, 509
41, 127, 514
41, 127, 504
41, 127, 514
42, 123, 508
42, 123, 500
42, 123, 487
42, 123, 498
43, 124, 495
43, 124, 499
43, 124, 492
43, 124, 501
44, 126, 505
44, 126, 508
44, 126, 500
44, 126, 508
45, 127, 505
45, 127, 508
45, 127, 505
45, 127, 514
46, 129, 514
46, 129, 521
46, 129, 513
46, 129, 523
47, 131, 519
47, 131, 524
47, 131, 511
47, 131, 529
48, 132, 517
48, 132, 522
48, 132, 510
48, 132, 534
49, 134, 516
49, 134, 522
49, 134, 512
49, 134, 543
0, 133, 522
0, 133, 527
0, 133, 516
0, 133, 539
1, 132, 522
1, 132, 530
1, 132, 517
1, 132, 533
2, 126, 514
2, 126, 515
2, 126, 502
2, 126, 510
3, 135, 509
3, 135, 532
3, 135, 541
3, 135, 547
4, 75, 518
4, 75, 493
4, 75, 415
4, 75, 300
5, 28, 169
5, 28, 96
5, 28, 95
5, 28, 119
6, 100, 97
6, 100, 139
6, 100, 255
6, 100, 407
7, 218, 572
7, 218, 741
7, 218, 884
7, 218, 873
8, 172, 819
8, 172, 746
8, 172, 703
8, 172, 688
9, 140, 662
9, 140, 615
9, 140, 577
9, 140, 560
10, 124, 550
10, 124, 520
10, 124, 497
10, 124, 499
11, 119, 503
11, 119, 491
11, 119, 476
11, 119, 483
11, 119, 503
11, 119, 491
11, 119, 476
11, 119, 483
13, 110, 463
13, 110, 447
13, 110, 441
13, 110, 444
14, 110, 425
14, 110, 432
14, 110, 423
14, 110, 444
15, 105, 419
15, 105, 423
15, 105, 413
15, 105, 425
16, 98, 401
16, 98, 403
16, 98, 388
16, 98, 397
17, 93, 378
17, 93, 382
17, 93, 372
17, 93, 377
18, 88, 367
18, 88, 368
18, 88, 352
18, 88, 353
19, 84, 348
19, 84, 350
19, 84, 339
19, 84, 342
20, 83, 335
20, 83, 343
20, 83, 331
20, 83, 339
21, 86, 333
21, 86, 344
21, 86, 335
21, 86, 348
22, 90, 348
22, 90, 356
22, 90, 352
22, 90, 365
23, 94, 365
23, 94, 371
23, 94, 365
23, 94, 383
24, 107, 388
24, 107, 403
24, 107, 411
24, 107, 434
25, 123, 444
25, 123, 463
25, 123, 472
25, 123, 497
26, 137, 503
26, 137, 527
26, 137, 533
26, 137, 553
27, 146, 560
27, 146, 575
27, 146, 574
27, 146, 590
28, 152, 595
28, 152, 608
28, 152, 605
28, 152, 613
29, 152, 608
29, 152, 616
29, 152, 609
29, 152, 615
30, 150, 607
30, 150, 609
30, 150, 600
30, 150, 601
31, 145, 591
31, 145, 595
31, 145, 583
31, 145, 583
32, 143, 577
32, 143, 579
32, 143, 572
32, 143, 579
33, 142, 582
33, 142, 579
33, 142, 567
33, 142, 574
34, 141, 572
34, 141, 572
34, 141, 560
34, 141, 569
35, 139, 572
35, 139, 568
35, 139, 556
35, 139, 558
36, 136, 556
36, 136, 556
36, 136, 543
36, 136, 548
37, 134, 543
37, 134, 543
37, 134, 532
37, 134, 540
38, 132, 540
38, 132, 540
38, 132, 527
38, 132, 535
39, 133, 537
39, 133, 537
39, 133, 528
39, 133, 536
40, 133, 538
40, 133, 543
40, 133, 531
40, 133, 537
41, 132, 540
41, 132, 540
41, 132, 530
41, 132, 533
42, 131, 529
42, 131, 531
42, 131, 523
42, 131, 529
43, 132, 528
43, 132, 534
43, 132, 526
43, 132, 533
44, 137, 531
44, 137, 540
44, 137, 532
44, 137, 553
45, 141, 537
45, 141, 547
45, 141, 539
45, 141, 568
46, 142, 550
46, 142, 551
46, 142, 542
46, 142, 572
47, 140, 550
47, 140, 553
47, 140, 545
47, 140, 567
48, 136, 548
48, 136, 550
48, 136, 539
48, 136, 548
49, 135, 539
49, 135, 545
49, 135, 535
49, 135, 545
0, 134, 533
0, 134, 543
0, 134, 532
0, 134, 543
1, 134, 533
1, 134, 543
1, 134, 531
1, 134, 540
2, 133, 532
2, 133, 543
2, 133, 533
2, 133, 535
3, 132, 531
3, 132, 535
3, 132, 526
3, 132, 535
4, 130, 530
4, 130, 533
4, 130, 520
4, 130, 523
5, 130, 536
5, 130, 526
5, 130, 517
5, 130, 527
6, 129, 540
6, 129, 527
6, 129, 517
6, 129, 519
7, 127, 519
7, 127, 510
7, 127, 502
7, 127, 515
7, 127, 519
7, 127, 510
7, 127, 502
7, 127, 515
9, 131, 531
9, 131, 520
9, 131, 521
9, 131, 528
10, 135, 520
10, 135, 531
10, 135, 527
10, 135, 547
11, 133, 521
11, 133, 525
11, 133, 519
11, 133, 537
12, 130, 516
12, 130, 522
12, 130, 513
12, 130, 527
13, 125, 509
13, 125, 510
13, 125, 501
13, 125, 507
14, 123, 499
14, 123, 504
14, 123, 491
14, 123, 497
15, 124, 491
15, 124, 499
15, 124, 495
15, 124, 500
16, 123, 491
16, 123, 496
16, 123, 493
16, 123, 497
17, 133, 492
17, 133, 507
17, 133, 506
17, 133, 536
18, 113, 543
18, 113, 532
18, 113, 499
18, 113, 455
19, 26, 357
19, 26, 228
19, 26, 122
19, 26, 105
20, 53, 132
20, 53, 152
20, 53, 127
20, 53, 217
21, 205, 330
21, 205, 494
21, 205, 639
21, 205, 824
22, 179, 895
22, 179, 841
22, 179, 767
22, 179, 719
23, 147, 685
23, 147, 652
23, 147, 611
23, 147, 590
24, 125, 554
24, 125, 536
24, 125, 511
24, 125, 502
25, 118, 489
25, 118, 487
25, 118, 473
25, 118, 476
26, 112, 463
26, 112, 467
26, 112, 451
26, 112, 455
27, 108, 447
27, 108, 448
27, 108, 435
27, 108, 439
28, 103, 432
28, 103, 429
28, 103, 414
28, 103, 419
29, 102, 415
29, 102, 419
29, 102, 409
29, 102, 415
30, 99, 412
30, 99, 411
30, 99, 396
30, 99, 400
31, 97, 394
31, 97, 397
31, 97, 387
31, 97, 392
32, 92, 386
32, 92, 383
32, 92, 371
32, 92, 371
33, 87, 365
33, 87, 364
33, 87, 349
33, 87, 352
34, 85, 348
34, 85, 352
34, 85, 339
34, 85, 344
35, 85, 340
35, 85, 348
35, 85, 335
35, 85, 345
36, 87, 344
36, 87, 350
36, 87, 344
36, 87, 355
37, 90, 355
37, 90, 363
37, 90, 355
37, 90, 364
38, 96, 367
38, 96, 380
38, 96, 379
38, 96, 391
39, 110, 397
39, 110, 415
39, 110, 422
39, 110, 447
40, 129, 460
40, 129, 486
40, 129, 491
40, 129, 520
41, 142, 518
41, 142, 539
41, 142, 540
41, 142, 574
42, 150, 565
42, 150, 572
42, 150, 570
42, 150, 604
43, 151, 585
43, 151, 590
43, 151, 583
43, 151, 611
44, 149, 591
44, 149, 595
44, 149, 585
44, 149, 603
45, 146, 590
45, 146, 595
45, 146, 585
45, 146, 591
46, 145, 585
46, 145, 591
46, 145, 579
46, 145, 585
47, 142, 575
47, 142, 583
47, 142, 570
47, 142, 575
48, 138, 562
48, 138, 564
48, 138, 553
48, 138, 556
49, 136, 547
49, 136, 556
49, 136, 543
49, 136, 550
0, 134, 543
0, 134, 547
0, 134, 536
0, 134, 543
1, 134, 556
1, 134, 545
1, 134, 536
1, 134, 543
2, 133, 553
2, 133, 543
2, 133, 532
2, 133, 536
3, 132, 543
3, 132, 533
3, 132, 523
3, 132, 534
4, 132, 540
4, 132, 529
4, 132, 522
4, 132, 535
4, 132, 540
4, 132, 529
4, 132, 522
4, 132, 535
6, 135, 526
6, 135, 542
6, 135, 556
6, 135, 540
7, 133, 536
7, 133, 540
7, 133, 545
7, 133, 534
8, 132, 532
8, 132, 537
8, 132, 540
8, 132, 529
9, 130, 523
9, 130, 524
9, 130, 520
9, 130, 521
10, 128, 520
10, 128, 524
10, 128, 515
10, 128, 517
11, 129, 521
11, 129, 522
11, 129, 514
11, 129, 521
12, 129, 523
12, 129, 527
12, 129, 515
12, 129, 521
13, 129, 524
13, 129, 530
13, 129, 517
13, 129, 523
14, 129, 520
14, 129, 523
14, 129, 516
14, 129, 523
15, 128, 520
15, 128, 521
15, 128, 515
15, 128, 517
16, 128, 518
16, 128, 520
16, 128, 513
16, 128, 516
16, 128, 513
16, 128, 516
16, 128, 514
16, 128, 518
17, 127, 513
17, 127, 516
17, 127, 508
17, 127, 514
18, 126, 515
18, 126, 514
18, 126, 504
18, 126, 507
19, 124, 507
19, 124, 508
19, 124, 496
19, 124, 499
20, 124, 502
20, 124, 507
20, 124, 496
20, 124, 499
21, 123, 502
21, 123, 508
21, 123, 495
21, 123, 492
22, 120, 486
22, 120, 484
22, 120, 483
22, 120, 487
23, 125, 495
23, 125, 502
23, 125, 494
23, 125, 505
24, 126, 514
24, 126, 513
24, 126, 504
24, 126, 508
25, 128, 512
25, 128, 517
25, 128, 508
25, 128, 519
26, 128, 516
26, 128, 517
26, 128, 507
26, 128, 516
27, 128, 516
27, 128, 516
27, 128, 509
27, 128, 518
28, 128, 519
28, 128, 519
28, 128, 506
28, 128, 516
29, 127, 515
29, 127, 519
29, 127, 507
29, 127, 512
30, 126, 508
30, 126, 510
30, 126, 499
30, 126, 510
31, 124, 506
31, 124, 508
31, 124, 496
31, 124, 503
32, 127, 497
32, 127, 504
32, 127, 499
32, 127, 514
33, 127, 531
33, 127, 542
33, 127, 524
33, 127, 509
34, 33, 448
34, 33, 345
34, 33, 214
34, 33, 135
35, 40, 150
35, 40, 182
35, 40, 172
35, 40, 163
36, 167, 241
36, 167, 352
36, 167, 514
36, 167, 673
37, 191, 835
37, 191, 916
37, 191, 857
37, 191, 767
38, 151, 710
38, 151, 673
38, 151, 651
38, 151, 607
39, 124, 563
39, 124, 541
39, 124, 524
39, 124, 497
40, 115, 484
40, 115, 479
40, 115, 467
40, 115, 463
41, 110, 462
41, 110, 463
41, 110, 454
41, 110, 443
42, 106, 438
42, 106, 439
42, 106, 428
42, 106, 427
43, 103, 430
43, 103, 429
43, 103, 419
43, 103, 415
44, 101, 419
44, 101, 419
44, 101, 408
44, 101, 406
45, 98, 406
45, 98, 409
45, 98, 397
45, 98, 394
46, 95, 394
46, 95, 396
46, 95, 382
46, 95, 383
47, 91, 379
47, 91, 380
47, 91, 365
47, 91, 371
48, 86, 359
48, 86, 359
48, 86, 342
48, 86, 350
0, 82, 323
0, 82, 327
0, 82, 321
0, 82, 335
1, 85, 326
1, 85, 335
1, 85, 329
1, 85, 345
2, 90, 339
2, 90, 351
2, 90, 347
2, 90, 367
3, 96, 357
3, 96, 369
3, 96, 364
3, 96, 388
4, 108, 383
4, 108, 398
4, 108, 406
4, 108, 438
5, 123, 436
5, 123, 460
5, 123, 463
5, 123, 498
6, 139, 506
6, 139, 530
6, 139, 537
6, 139, 560
7, 146, 563
7, 146, 581
7, 146, 582
7, 146, 591
8, 152, 595
8, 152, 609
8, 152, 608
8, 152, 615
9, 153, 611
9, 153, 619
9, 153, 615
9, 153, 615
10, 151, 606
10, 151, 611
10, 151, 602
10, 151, 611
11, 149, 604
11, 149, 606
11, 149, 595
11, 149, 600
12, 147, 595
12, 147, 596
12, 147, 587
12, 147, 595
13, 146, 588
13, 146, 588
13, 146, 579
13, 146, 591
14, 143, 579
14, 143, 583
14, 143, 572
14, 143, 577
15, 143, 574
15, 143, 576
15, 143, 573
15, 143, 579
16, 142, 572
16, 142, 572
16, 142, 566
16, 142, 575
17, 141, 568
17, 141, 574
17, 141, 565
17, 141, 566
18, 136, 560
18, 136, 558
18, 136, 545
18, 136, 550
19, 134, 543
19, 134, 550
19, 134, 537
19, 134, 542
20, 134, 537
20, 134, 543
20, 134, 533
20, 134, 543
21, 134, 539
21, 134, 543
21, 134, 536
21, 134, 542
22, 134, 543
22, 134, 544
22, 134, 535
22, 134, 540
23, 134, 543
23, 134, 547
23, 134, 536
23, 134, 542
24, 136, 542
24, 136, 543
24, 136, 537
24, 136, 550
25, 135, 551
25, 135, 552
25, 135, 543
25, 135, 547
26, 137, 551
26, 137, 551
26, 137, 547
26, 137, 554
27, 135, 556
27, 135, 554
27, 135, 543
27, 135, 543
28, 133, 547
28, 133, 542
28, 133, 528
28, 133, 538
29, 133, 537
29, 133, 537
29, 133, 527
29, 133, 536
30, 131, 534
30, 131, 535
30, 131, 525
30, 131, 531
31, 130, 530
31, 130, 531
31, 130, 520
31, 130, 525
32, 129, 521
32, 129, 524
32, 129, 515
32, 129, 523
33, 130, 522
33, 130, 527
33, 130, 519
33, 130, 527
34, 132, 516
34, 132, 521
34, 132, 509
34, 132, 534
35, 134, 519
35, 134, 518
35, 134, 512
35, 134, 540
36, 127, 516
36, 127, 513
36, 127, 494
36, 127, 512
37, 128, 498
37, 128, 505
37, 128, 499
37, 128, 518
38, 129, 508
38, 129, 518
38, 129, 511
38, 129, 523
39, 131, 513
39, 131, 526
39, 131, 521
39, 131, 531
40, 133, 522
40, 133, 534
40, 133, 523
40, 133, 536
41, 132, 526
41, 132, 536
41, 132, 527
41, 132, 532
42, 131, 526
42, 131, 534
42, 131, 527
42, 131, 531
43, 133, 524
43, 133, 534
43, 133, 527
43, 133, 536
44, 130, 539
44, 130, 533
44, 130, 518
44, 130, 525
45, 128, 528
45, 128, 517
45, 128, 509
45, 128, 519
46, 127, 526
46, 127, 516
46, 127, 508
46, 127, 515
47, 137, 523
47, 137, 519
47, 137, 527
47, 137, 555
47, 137, 523
47, 137, 519
47, 137, 527
47, 137, 555
49, 31, 304
49, 31, 195
49, 31, 127
49, 31, 127
0, 113, 159
0, 113, 191
0, 113, 304
0, 113, 457
1, 226, 595
1, 226, 739
1, 226, 888
1, 226, 911
2, 175, 807
2, 175, 755
2, 175, 707
2, 175, 703
3, 142, 647
3, 142, 622
3, 142, 590
3, 142, 570
4, 124, 542
4, 124, 524
4, 124, 503
4, 124, 499
5, 119, 489
5, 119, 491
5, 119, 479
5, 119, 476
6, 114, 463
6, 114, 468
6, 114, 455
6, 114, 460
7, 110, 447
7, 110, 451
7, 110, 439
7, 110, 444
8, 105, 434
8, 105, 435
8, 105, 423
8, 105, 425
9, 103, 419
9, 103, 420
9, 103, 411
9, 103, 419
10, 102, 408
10, 102, 413
10, 102, 403
10, 102, 414
11, 96, 401
11, 96, 399
11, 96, 383
11, 96, 388
12, 93, 382
12, 93, 383
12, 93, 376
12, 93, 375
13, 87, 364
13, 87, 368
13, 87, 351
13, 87, 353
14, 89, 346
14, 89, 355
14, 89, 348
14, 89, 361
15, 90, 357
15, 90, 364
15, 90, 355
15, 90, 366
16, 92, 362
16, 92, 372
16, 92, 364
16, 92, 373
17, 96, 375
17, 96, 383
17, 96, 378
17, 96, 388
18, 104, 391
18, 104, 406
18, 104, 407
18, 104, 423
19, 119, 435
19, 119, 451
19, 119, 460
19, 119, 482
20, 132, 495
20, 132, 512
20, 132, 514
20, 132, 535
21, 144, 547
21, 144, 563
21, 144, 568
21, 144, 583
22, 151, 591
22, 151, 602
22, 151, 600
22, 151, 611
23, 152, 615
23, 152, 615
23, 152, 611
23, 152, 615
24, 154, 621
24, 154, 622
24, 154, 614
24, 154, 621
25, 153, 623
25, 153, 624
25, 153, 615
25, 153, 619
26, 151, 621
26, 151, 615
26, 151, 604
26, 151, 605
27, 147, 603
27, 147, 601
27, 147, 590
27, 147, 591
28, 146, 591
28, 146, 591
28, 146, 579
28, 146, 588
29, 144, 580
29, 144, 590
29, 144, 577
29, 144, 583
30, 142, 572
30, 142, 574
30, 142, 563
30, 142, 575
31, 144, 563
31, 144, 568
31, 144, 560
31, 144, 582
32, 143, 563
32, 143, 565
32, 143, 562
32, 143, 579
33, 143, 560
33, 143, 563
33, 143, 551
33, 143, 576
34, 141, 551
34, 141, 556
34, 141, 546
34, 141, 568
35, 138, 550
35, 138, 556
35, 138, 547
35, 138, 556
36, 137, 545
36, 137, 556
36, 137, 547
36, 137, 553
37, 134, 543
37, 134, 550
37, 134, 537
37, 134, 543
38, 133, 531
38, 133, 537
38, 133, 526
38, 133, 537
39, 134, 528
39, 134, 539
39, 134, 529
39, 134, 540
40, 133, 535
40, 133, 540
40, 133, 531
40, 133, 536
41, 130, 537
41, 130, 529
41, 130, 520
41, 130, 527
42, 130, 534
42, 130, 524
42, 130, 515
42, 130, 524
43, 130, 532
43, 130, 522
43, 130, 515
43, 130, 527
44, 132, 537
44, 132, 527
44, 132, 518
44, 132, 532
44, 132, 537
44, 132, 527
44, 132, 518
44, 132, 532
46, 128, 531
46, 128, 516
46, 128, 512
46, 128, 516
47, 128, 506
47, 128, 507
47, 128, 499
47, 128, 518
48, 130, 491
48, 130, 500
48, 130, 495
48, 130, 526
49, 127, 492
49, 127, 509
49, 127, 502
49, 127, 513
0, 123, 495
0, 123, 496
0, 123, 487
0, 123, 499
1, 123, 493
1, 123, 497
1, 123, 488
1, 123, 499
2, 126, 496
2, 126, 500
2, 126, 495
2, 126, 511
3, 130, 512
3, 130, 513
3, 130, 512
3, 130, 527
4, 129, 519
4, 129, 523
4, 129, 515
4, 129, 520
5, 130, 513
5, 130, 519
5, 130, 514
5, 130, 526
6, 132, 522
6, 132, 535
6, 132, 518
6, 132, 535
7, 134, 530
7, 134, 534
7, 134, 527
7, 134, 542
8, 134, 537
8, 134, 543
8, 134, 540
8, 134, 542
9, 132, 540
9, 132, 543
9, 132, 530
9, 132, 533
10, 131, 529
10, 131, 536
10, 131, 524
10, 131, 527
11, 128, 523
11, 128, 535
11, 128, 524
11, 128, 514
12, 60, 476
12, 60, 432
12, 60, 323
12, 60, 243
13, 65, 176
13, 65, 192
13, 65, 229
13, 65, 265
14, 150, 295
14, 150, 379
14, 150, 467
14, 150, 606
15, 216, 719
15, 216, 835
15, 216, 900
15, 216, 867
16, 162, 796
16, 162, 719
16, 162, 671
16, 162, 650
17, 125, 615
17, 125, 568
17, 125, 520
17, 125, 503
18, 115, 487
18, 115, 480
18, 115, 463
18, 115, 467
19, 112, 463
19, 112, 463
19, 112, 451
19, 112, 451
20, 110, 451
20, 110, 449
20, 110, 440
20, 110, 441
21, 108, 440
21, 108, 439
21, 108, 432
21, 108, 433
22, 105, 435
22, 105, 436
22, 105, 423
22, 105, 423
23, 102, 423
23, 102, 416
23, 102, 408
23, 102, 412
24, 100, 415
24, 100, 419
24, 100, 402
24, 100, 401
25, 90, 391
25, 90, 385
25, 90, 362
25, 90, 362
26, 85, 356
26, 85, 361
26, 85, 344
26, 85, 342
27, 79, 332
27, 79, 335
27, 79, 319
27, 79, 320
28, 77, 318
28, 77, 319
28, 77, 307
28, 77, 315
29, 79, 305
29, 79, 312
29, 79, 304
29, 79, 323
30, 82, 312
30, 82, 319
30, 82, 309
30, 82, 335
31, 89, 326
31, 89, 334
31, 89, 332
31, 89, 360
32, 98, 350
32, 98, 369
32, 98, 367
32, 98, 399
33, 114, 399
33, 114, 429
33, 114, 432
33, 114, 462
34, 131, 470
34, 131, 494
34, 131, 503
34, 131, 531
35, 143, 543
35, 143, 560
35, 143, 563
35, 143, 577
36, 148, 575
36, 148, 588
36, 148, 585
36, 148, 596
37, 148, 591
37, 148, 600
37, 148, 590
37, 148, 598
38, 149, 596
38, 149, 601
38, 149, 600
38, 149, 598
39, 147, 604
39, 147, 596
39, 147, 588
39, 147, 591
40, 143, 595
40, 143, 583
40, 143, 571
40, 143, 579
41, 142, 595
41, 142, 575
41, 142, 568
41, 142, 575
42, 143, 587
42, 143, 574
42, 143, 572
42, 143, 575
42, 143, 587
42, 143, 574
42, 143, 572
42, 143, 575
44, 139, 577
44, 139, 558
44, 139, 558
44, 139, 562
45, 141, 550
45, 141, 556
45, 141, 545
45, 141, 568
46, 139, 542
46, 139, 557
46, 139, 539
46, 139, 560
47, 136, 537
47, 136, 543
47, 136, 535
47, 136, 550
48, 133, 531
48, 133, 538
48, 133, 528
48, 133, 537
49, 134, 529
49, 134, 536
49, 134, 531
49, 134, 540
0, 134, 533
0, 134, 556
0, 134, 537
0, 134, 543
1, 133, 536
1, 133, 540
1, 133, 533
1, 133, 538
2, 132, 529
2, 132, 539
2, 132, 524
2, 132, 534
3, 134, 534
3, 134, 540
3, 134, 531
3, 134, 542
4, 138, 540
4, 138, 548
4, 138, 550
4, 138, 556
5, 137, 550
5, 137, 556
5, 137, 543
5, 137, 553
6, 135, 543
6, 135, 545
6, 135, 536
6, 135, 547
7, 133, 529
7, 133, 539
7, 133, 529
7, 133, 537
8, 131, 534
8, 131, 537
8, 131, 527
8, 131, 530
9, 132, 540
9, 132, 539
9, 132, 527
9, 132, 535
10, 133, 529
10, 133, 536
10, 133, 529
10, 133, 537
11, 133, 531
11, 133, 537
11, 133, 531
11, 133, 537
12, 131, 535
12, 131, 537
12, 131, 526
12, 131, 529
13, 130, 525
13, 130, 529
13, 130, 516
13, 130, 525
14, 127, 523
14, 127, 517
14, 127, 501
14, 127, 512
15, 127, 514
15, 127, 515
15, 127, 507
15, 127, 514
16, 124, 511
16, 124, 512
16, 124, 498
16, 124, 499
17, 127, 500
17, 127, 507
17, 127, 503
17, 127, 513
18, 128, 517
18, 128, 516
18, 128, 514
18, 128, 515
19, 127, 516
19, 127, 516
19, 127, 507
19, 127, 515
20, 129, 519
20, 129, 521
20, 129, 516
20, 129, 520
21, 131, 526
21, 131, 529
21, 131, 523
21, 131, 530
22, 130, 532
22, 130, 532
22, 130, 522
22, 130, 526
23, 129, 522
23, 129, 526
23, 129, 516
23, 129, 523
24, 127, 516
24, 127, 518
24, 127, 506
24, 127, 513
25, 128, 508
25, 128, 515
25, 128, 506
25, 128, 517
26, 133, 514
26, 133, 519
26, 133, 511
26, 133, 537
27, 136, 516
27, 136, 523
27, 136, 518
27, 136, 551
28, 113, 531
28, 113, 523
28, 113, 480
28, 113, 455
29, 55, 335
29, 55, 265
29, 55, 183
29, 55, 227
30, 92, 260
30, 92, 287
30, 92, 307
30, 92, 372
31, 205, 446
31, 205, 581
31, 205, 713
31, 205, 824
32, 181, 895
32, 181, 881
32, 181, 790
32, 181, 725
33, 139, 671
33, 139, 649
33, 139, 600
33, 139, 558
34, 120, 515
34, 120, 498
34, 120, 479
34, 120, 487
35, 115, 468
35, 115, 474
35, 115, 460
35, 115, 463
36, 111, 455
36, 111, 455
36, 111, 441
36, 111, 448
37, 108, 447
37, 108, 444
37, 108, 433
37, 108, 436
38, 107, 441
38, 107, 435
38, 107, 422
38, 107, 432
39, 106, 433
39, 106, 425
39, 106, 414
39, 106, 430
39, 106, 433
39, 106, 425
39, 106, 414
39, 106, 430
41, 99, 415
41, 99, 404
41, 99, 399
41, 99, 397
42, 94, 383
42, 94, 387
42, 94, 377
42, 94, 383
43, 87, 361
43, 87, 364
43, 87, 345
43, 87, 355
44, 82, 335
44, 82, 335
44, 82, 323
44, 82, 332
45, 82, 332
45, 82, 331
45, 82, 323
45, 82, 335
46, 82, 326
46, 82, 335
46, 82, 326
46, 82, 335
47, 85, 329
47, 85, 335
47, 85, 334
47, 85, 344
48, 92, 345
48, 92, 354
48, 92, 358
48, 92, 375
49, 108, 381
49, 108, 405
49, 108, 411
49, 108, 436
0, 127, 455
0, 127, 481
0, 127, 485
0, 127, 514
1, 140, 525
1, 140, 543
1, 140, 541
1, 140, 564
2, 146, 566
2, 146, 579
2, 146, 572
2, 146, 591
3, 151, 590
3, 151, 602
3, 151, 600
3, 151, 608
4, 148, 601
4, 148, 601
4, 148, 591
4, 148, 596
5, 147, 590
5, 147, 591
5, 147, 588
5, 147, 591
6, 146, 586
6, 146, 588
6, 146, 583
6, 146, 591
7, 143, 583
7, 143, 591
7, 143, 572
7, 143, 577
8, 140, 566
8, 140, 568
8, 140, 560
8, 140, 563
9, 138, 558
9, 138, 563
9, 138, 551
9, 138, 556
10, 136, 549
10, 136, 554
10, 136, 543
10, 136, 551
11, 135, 555
11, 135, 554
11, 135, 542
11, 135, 547
12, 133, 543
12, 133, 543
12, 133, 534
12, 133, 537
13, 131, 536
13, 131, 535
13, 131, 520
13, 131, 529
14, 131, 531
14, 131, 534
14, 131, 524
14, 131, 527
15, 130, 529
15, 130, 528
15, 130, 522
15, 130, 527
16, 131, 529
16, 131, 529
16, 131, 524
16, 131, 527
17, 130, 526
17, 130, 527
17, 130, 518
17, 130, 526
18, 130, 527
18, 130, 531
18, 130, 521
18, 130, 526
19, 128, 523
19, 128, 525
19, 128, 514
19, 128, 517
20, 130, 517
20, 130, 518
20, 130, 513
20, 130, 524
21, 130, 531
21, 130, 527
21, 130, 518
21, 130, 527
22, 130, 526
22, 130, 527
22, 130, 516
22, 130, 525
23, 134, 520
23, 134, 525
23, 134, 516
23, 134, 541
24, 135, 520
24, 135, 526
24, 135, 519
24, 135, 547
25, 134, 526
25, 134, 527
25, 134, 518
25, 134, 542
26, 131, 520
26, 131, 521
26, 131, 511
26, 131, 529
27, 129, 511
27, 129, 519
27, 129, 508
27, 129, 520
28, 130, 506
28, 130, 514
28, 130, 506
28, 130, 526
29, 129, 510
29, 129, 519
29, 129, 509
29, 129, 521
30, 128, 512
30, 128, 524
30, 128, 511
30, 128, 519
31, 129, 512
31, 129, 524
31, 129, 514
31, 129, 522
32, 128, 517
32, 128, 520
32, 128, 508
32, 128, 518
33, 128, 518
33, 128, 519
33, 128, 510
33, 128, 519
34, 130, 536
34, 130, 527
34, 130, 518
34, 130, 526
35, 128, 536
35, 128, 523
35, 128, 511
35, 128, 518
36, 127, 528
36, 127, 513
36, 127, 500
36, 127, 514
36, 127, 528
36, 127, 513
36, 127, 500
36, 127, 514
38, 123, 520
38, 123, 503
38, 123, 494
38, 123, 495
39, 129, 485
39, 129, 498
39, 129, 499
39, 129, 522
40, 131, 503
40, 131, 511
40, 131, 509
40, 131, 531
41, 130, 508
41, 130, 518
41, 130, 508
41, 130, 526
42, 128, 518
42, 128, 521
42, 128, 514
42, 128, 519
43, 128, 510
43, 128, 515
43, 128, 508
43, 128, 516
44, 129, 509
44, 129, 523
44, 129, 516
44, 129, 519
45, 127, 509
45, 127, 515
45, 127, 508
45, 127, 513
46, 125, 507
46, 125, 509
46, 125, 498
46, 125, 505
47, 123, 502
47, 123, 504
47, 123, 495
47, 123, 499
48, 123, 492
48, 123, 496
48, 123, 491
48, 123, 499
49, 133, 496
49, 133, 504
49, 133, 515
49, 133, 538
0, 94, 532
0, 94, 511
0, 94, 463
0, 94, 376
1, 43, 249
1, 43, 153
1, 43, 137
1, 43, 179
2, 82, 180
2, 82, 188
2, 82, 224
2, 82, 332
3, 228, 462
3, 228, 639
3, 228, 782
3, 228, 916
4, 173, 879
4, 173, 801
4, 173, 728
4, 173, 694
5, 136, 653
5, 136, 622
5, 136, 575
5, 136, 547
6, 122, 520
6, 122, 509
6, 122, 494
6, 122, 489
7, 117, 481
7, 117, 487
7, 117, 467
7, 117, 472
8, 113, 467
8, 113, 463
8, 113, 451
8, 113, 459
9, 110, 451
9, 110, 449
9, 110, 438
9, 110, 446
10, 107, 444
10, 107, 441
10, 107, 430
10, 107, 432
11, 106, 430
11, 106, 432
11, 106, 422
11, 106, 428
12, 103, 422
12, 103, 422
12, 103, 412
12, 103, 415
13, 99, 412
13, 99, 411
13, 99, 397
13, 99, 400
14, 95, 398
14, 95, 396
14, 95, 382
14, 95, 383
15, 89, 376
15, 89, 376
15, 89, 359
15, 89, 359
16, 85, 353
16, 85, 350
16, 85, 335
16, 85, 344
17, 82, 342
17, 82, 339
17, 82, 327
17, 82, 334
18, 83, 332
18, 83, 335
18, 83, 331
18, 83, 339
19, 88, 335
19, 88, 349
19, 88, 344
19, 88, 359
20, 98, 361
20, 98, 375
20, 98, 372
20, 98, 398
21, 114, 396
21, 114, 417
21, 114, 425
21, 114, 463
22, 133, 463
22, 133, 486
22, 133, 494
22, 133, 539
23, 146, 540
23, 146, 560
23, 146, 556
23, 146, 590
24, 150, 579
24, 150, 591
24, 150, 588
24, 150, 605
25, 154, 601
25, 154, 615
25, 154, 609
25, 154, 623
26, 154, 611
26, 154, 617
26, 154, 611
26, 154, 623
27, 151, 610
27, 151, 615
27, 151, 604
27, 151, 609
28, 148, 600
28, 148, 606
28, 148, 591
28, 148, 598
29, 146, 590
29, 146, 591
29, 146, 582
29, 146, 588
30, 144, 583
30, 144, 583
30, 144, 574
30, 144, 583
31, 142, 590
31, 142, 577
31, 142, 571
31, 142, 572
32, 141, 583
32, 141, 571
32, 141, 560
32, 141, 568
33, 139, 575
33, 139, 566
33, 139, 551
33, 139, 562
33, 139, 575
33, 139, 566
33, 139, 551
33, 139, 562
35, 136, 563
35, 136, 549
35, 136, 547
35, 136, 551
36, 140, 543
36, 140, 545
36, 140, 543
36, 140, 566
37, 142, 547
37, 142, 560
37, 142, 551
37, 142, 575
38, 141, 551
38, 141, 560
38, 141, 549
38, 141, 568
39, 139, 557
39, 139, 561
39, 139, 551
39, 139, 560
40, 137, 551
40, 137, 560
40, 137, 547
40, 137, 553
41, 138, 549
41, 138, 556
41, 138, 551
41, 138, 556
42, 138, 549
42, 138, 555
42, 138, 551
42, 138, 556
43, 139, 551
43, 139, 560
43, 139, 551
43, 139, 561
44, 138, 556
44, 138, 560
44, 138, 550
44, 138, 556
45, 139, 556
45, 139, 560
45, 139, 551
45, 139, 563
46, 138, 556
46, 138, 556
46, 138, 553
46, 138, 553
47, 136, 545
47, 136, 551
47, 136, 543
47, 136, 551
48, 134, 541
48, 134, 543
48, 134, 535
48, 134, 540
49, 134, 535
49, 134, 539
49, 134, 530
49, 134, 540
0, 133, 534
0, 133, 540
0, 133, 530
0, 133, 537
1, 133, 531
1, 133, 539
1, 133, 527
1, 133, 536
2, 131, 530
2, 131, 534
2, 131, 524
2, 131, 530
3, 131, 527
3, 131, 531
3, 131, 521
3, 131, 528
4, 129, 525
4, 129, 523
4, 129, 512
4, 129, 521
6, 130, 524
6, 130, 523
6, 130, 520
6, 130, 526
7, 130, 524
7, 130, 529
7, 130, 522
7, 130, 527
8, 129, 527
8, 129, 526
8, 129, 516
8, 129, 521
9, 128, 523
9, 128, 523
9, 128, 512
9, 128, 516
10, 127, 520
10, 127, 517
10, 127, 507
10, 127, 512
11, 127, 513
11, 127, 512
11, 127, 504
11, 127, 513
12, 123, 513
12, 123, 514
12, 123, 499
12, 123, 495
13, 123, 493
13, 123, 496
13, 123, 483
13, 123, 497
14, 126, 495
14, 126, 499
14, 126, 494
14, 126, 508
15, 128, 507
15, 128, 515
15, 128, 506
15, 128, 516
16, 132, 510
16, 132, 521
16, 132, 514
16, 132, 535
17, 131, 515
17, 131, 516
17, 131, 507
17, 131, 531
18, 131, 509
18, 131, 512
18, 131, 505
18, 131, 528
19, 127, 509
19, 127, 511
19, 127, 499
19, 127, 512
20, 121, 495
20, 121, 499
20, 121, 487
20, 121, 491
21, 119, 479
21, 119, 487
21, 119, 476
21, 119, 481
22, 119, 476
22, 119, 480
22, 119, 476
22, 119, 483
23, 122, 472
23, 122, 483
23, 122, 475
23, 122, 495
24, 119, 508
24, 119, 524
24, 119, 503
24, 119, 478
25, 27, 405
25, 27, 291
25, 27, 167
25, 27, 110
26, 40, 133
26, 40, 161
26, 40, 163
26, 40, 167
27, 174, 268
27, 174, 382
27, 174, 543
27, 174, 700
28, 187, 884
28, 187, 892
28, 187, 807
28, 187, 748
28, 187, 884
28, 187, 892
28, 187, 807
28, 187, 748
30, 121, 568
30, 121, 519
30, 121, 498
30, 121, 487
31, 112, 463
31, 112, 463
31, 112, 447
31, 112, 455
32, 107, 434
32, 107, 438
32, 107, 423
32, 107, 435
33, 102, 415
33, 102, 419
33, 102, 406
33, 102, 415
34, 98, 399
34, 98, 401
34, 98, 390
34, 98, 398
35, 94, 388
35, 94, 391
35, 94, 378
35, 94, 383
36, 91, 374
36, 91, 379
36, 91, 367
36, 91, 369
37, 89, 363
37, 89, 367
37, 89, 357
37, 89, 359
38, 85, 350
38, 85, 355
38, 85, 339
38, 85, 344
39, 80, 335
39, 80, 334
39, 80, 320
39, 80, 323
40, 76, 318
40, 76, 316
40, 76, 304
40, 76, 307
41, 74, 302
41, 74, 302
41, 74, 287
41, 74, 302
42, 77, 300
42, 77, 310
42, 77, 301
42, 77, 312
43, 79, 308
43, 79, 318
43, 79, 313
43, 79, 323
44, 86, 323
44, 86, 334
44, 86, 331
44, 86, 348
45, 100, 355
45, 100, 372
45, 100, 381
45, 100, 407
46, 118, 419
46, 118, 446
46, 118, 451
46, 118, 479
47, 134, 494
47, 134, 519
47, 134, 520
47, 134, 540
48, 142, 545
48, 142, 559
48, 142, 560
48, 142, 572
49, 145, 575
49, 145, 583
49, 145, 577
49, 145, 587
0, 146, 588
0, 146, 591
0, 146, 582
0, 146, 589
1, 143, 589
1, 143, 588
1, 143, 575
1, 143, 577
2, 138, 572
2, 138, 565
2, 138, 551
2, 138, 556
3, 136, 552
3, 136, 553
3, 136, 543
3, 136, 551
4, 135, 550
4, 135, 547
4, 135, 540
4, 135, 545
5, 134, 547
5, 134, 547
5, 134, 535
5, 134, 540
6, 132, 538
6, 132, 540
6, 132, 529
6, 132, 534
7, 133, 536
7, 133, 537
7, 133, 529
7, 133, 537
8, 131, 536
8, 131, 536
8, 131, 527
8, 131, 529
9, 130, 531
9, 130, 531
9, 130, 516
9, 130, 526
10, 131, 527
10, 131, 531
10, 131, 520
10, 131, 530
11, 132, 527
11, 132, 533
11, 132, 526
11, 132, 533
12, 135, 527
12, 135, 535
12, 135, 527
12, 135, 547
13, 139, 534
13, 139, 537
13, 139, 529
13, 139, 560
14, 138, 535
14, 138, 540
14, 138, 531
14, 138, 558
15, 134, 534
15, 134, 532
15, 134, 523
15, 134, 543
16, 134, 527
16, 134, 532
16, 134, 524
16, 134, 543
17, 132, 529
17, 132, 536
17, 132, 527
17, 132, 534
18, 130, 520
18, 130, 527
18, 130, 518
18, 130, 527
19, 130, 515
19, 130, 521
19, 130, 514
19, 130, 525
20, 129, 515
20, 129, 520
20, 129, 512
20, 129, 520
21, 129, 515
21, 129, 520
21, 129, 511
21, 129, 520
22, 127, 515
22, 127, 517
22, 127, 506
22, 127, 513
23, 127, 523
23, 127, 515
23, 127, 508
23, 127, 515
24, 126, 521
24, 126, 509
24, 126, 497
24, 126, 508
25, 126, 513
25, 126, 508
25, 126, 498
25, 126, 509
26, 126, 516
26, 126, 502
26, 126, 496
26, 126, 511
26, 126, 516
26, 126, 502
26, 126, 496
26, 126, 511
28, 122, 509
28, 122, 492
28, 122, 490
28, 122, 495
29, 124, 486
29, 124, 492
29, 124, 483
29, 124, 502
30, 123, 480
30, 123, 492
30, 123, 485
30, 123, 498
31, 124, 481
31, 124, 491
31, 124, 481
31, 124, 501
32, 122, 488
32, 122, 498
32, 122, 487
32, 122, 493
33, 120, 488
33, 120, 494
33, 120, 481
33, 120, 486
34, 119, 480
34, 119, 486
34, 119, 478
34, 119, 482
35, 122, 477
35, 122, 483
35, 122, 478
35, 122, 492
36, 118, 483
36, 118, 486
36, 118, 472
36, 118, 476
37, 121, 476
37, 121, 485
37, 121, 479
37, 121, 491
38, 123, 486
38, 123, 496
38, 123, 487
38, 123, 497
39, 124, 492
39, 124, 495
39, 124, 489
39, 124, 502
40, 127, 497
40, 127, 508
40, 127, 502
40, 127, 512
41, 126, 507
41, 126, 510
41, 126, 499
41, 126, 509
42, 126, 506
42, 126, 510
42, 126, 502
42, 126, 509
43, 127, 504
43, 127, 511
43, 127, 507
43, 127, 513
44, 127, 512
44, 127, 516
44, 127, 503
44, 127, 512
45, 127, 508
45, 127, 515
45, 127, 503
45, 127, 513
46, 126, 508
46, 126, 512
46, 126, 504
46, 126, 508
47, 132, 503
47, 132, 508
47, 132, 512
47, 132, 532
48, 98, 536
48, 98, 515
48, 98, 470
48, 98, 392
49, 36, 255
49, 36, 153
49, 36, 109
49, 36, 151
0, 70, 153
0, 70, 159
0, 70, 172
0, 70, 286
1, 220, 410
1, 220, 583
1, 220, 732
1, 220, 884
2, 169, 875
2, 169, 789
2, 169, 718
2, 169, 678
3, 135, 645
3, 135, 615
3, 135, 572
3, 135, 543
4, 119, 521
4, 119, 504
4, 119, 483
4, 119, 478
5, 113, 470
5, 113, 468
5, 113, 454
5, 113, 455
6, 108, 447
6, 108, 446
6, 108, 432
6, 108, 432
7, 102, 423
7, 102, 423
7, 102, 409
7, 102, 415
8, 100, 412
8, 100, 419
8, 100, 403
8, 100, 406
9, 98, 398
9, 98, 403
9, 98, 390
9, 98, 399
10, 101, 393
10, 101, 399
10, 101, 392
10, 101, 408
11, 97, 386
11, 97, 383
11, 97, 374
11, 97, 393
12, 91, 370
12, 91, 368
12, 91, 358
12, 91, 371
13, 86, 352
13, 86, 352
13, 86, 335
13, 86, 351
14, 82, 334
14, 82, 335
14, 82, 327
14, 82, 335
15, 82, 327
15, 82, 335
15, 82, 323
15, 82, 335
16, 85, 327
16, 85, 335
16, 85, 334
16, 85, 344
17, 88, 335
17, 88, 351
17, 88, 342
17, 88, 358
18, 96, 355
18, 96, 367
18, 96, 367
18, 96, 388
19, 108, 394
19, 108, 411
19, 108, 415
19, 108, 438
20, 126, 451
20, 126, 474
20, 126, 484
20, 126, 511
21, 139, 535
21, 139, 540
21, 139, 543
21, 139, 560
22, 146, 579
22, 146, 576
22, 146, 572
22, 146, 588
23, 149, 603
23, 149, 591
23, 149, 588
23, 149, 601
23, 149, 603
23, 149, 591
23, 149, 588
23, 149, 601
25, 149, 617
25, 149, 595
25, 149, 595
25, 149, 602
26, 151, 591
26, 151, 598
26, 151, 591
26, 151, 608
27, 148, 583
27, 148, 588
27, 148, 577
27, 148, 598
28, 145, 575
28, 145, 579
28, 145, 570
28, 145, 585
29, 141, 568
29, 141, 572
29, 141, 563
29, 141, 570
30, 139, 558
30, 139, 563
30, 139, 554
30, 139, 561
31, 138, 555
31, 138, 563
31, 138, 548
31, 138, 556
32, 136, 550
32, 136, 554
32, 136, 547
32, 136, 550
33, 135, 543
33, 135, 550
33, 135, 540
33, 135, 547
34, 135, 543
34, 135, 549
34, 135, 542
34, 135, 547
35, 134, 537
35, 134, 541
35, 134, 531
35, 134, 542
36, 133, 535
36, 133, 540
36, 133, 531
36, 133, 538
37, 132, 531
37, 132, 538
37, 132, 527
37, 132, 532
38, 131, 527
38, 131, 535
38, 131, 523
38, 131, 528
39, 131, 525
39, 131, 532
39, 131, 526
39, 131, 530
40, 132, 527
40, 132, 535
40, 132, 527
40, 132, 534
41, 131, 526
41, 131, 530
41, 131, 521
41, 131, 528
42, 129, 519
42, 129, 526
42, 129, 516
42, 129, 522
43, 130, 517
43, 130, 521
43, 130, 513
43, 130, 524
44, 127, 517
44, 127, 518
44, 127, 507
44, 127, 514
45, 128, 516
45, 128, 515
45, 128, 504
45, 128, 516
46, 127, 516
46, 127, 515
46, 127, 506
46, 127, 512
47, 127, 515
47, 127, 518
47, 127, 509
47, 127, 515
48, 127, 513
48, 127, 516
48, 127, 509
48, 127, 514
49, 126, 512
49, 126, 512
49, 126, 501
49, 126, 508
0, 126, 509
0, 126, 508
0, 126, 502
0, 126, 509
1, 127, 513
1, 127, 516
1, 127, 508
1, 127, 515
2, 127, 516
2, 127, 516
2, 127, 508
2, 127, 512
3, 127, 512
3, 127, 514
3, 127, 505
3, 127, 513
4, 130, 516
4, 130, 523
4, 130, 515
4, 130, 524
5, 127, 521
5, 127, 523
5, 127, 508
5, 127, 514
6, 127, 508
6, 127, 513
6, 127, 504
6, 127, 515
7, 128, 508
7, 128, 511
7, 128, 501
7, 128, 518
8, 127, 487
8, 127, 492
8, 127, 483
8, 127, 512
9, 130, 502
9, 130, 503
9, 130, 495
9, 130, 525
10, 133, 512
10, 133, 517
10, 133, 512
10, 133, 536
11, 131, 513
11, 131, 527
11, 131, 523
11, 131, 531
12, 133, 524
12, 133, 536
12, 133, 525
12, 133, 537
13, 132, 523
13, 132, 536
13, 132, 527
13, 132, 535
14, 131, 527
14, 131, 537
14, 131, 525
14, 131, 529
15, 129, 519
15, 129, 526
15, 129, 514
15, 129, 523
16, 130, 522
16, 130, 528
16, 130, 520
16, 130, 525
17, 130, 530
17, 130, 525
17, 130, 518
17, 130, 527
18, 137, 536
18, 137, 529
18, 137, 526
18, 137, 553
19, 125, 577
19, 125, 561
19, 125, 527
19, 125, 501
20, 28, 444
20, 28, 310
20, 28, 191
20, 28, 114
20, 28, 444
20, 28, 310
20, 28, 191
20, 28, 114
22, 183, 295
22, 183, 433
22, 183, 583
22, 183, 739
23, 184, 860
23, 184, 799
23, 184, 750
23, 184, 739
24, 153, 685
24, 153, 652
24, 153, 620
24, 153, 615
25, 130, 568
25, 130, 547
25, 130, 520
25, 130, 523
26, 120, 497
26, 120, 498
26, 120, 484
26, 120, 483
27, 116, 472
27, 116, 475
27, 116, 463
27, 116, 468
28, 114, 455
28, 114, 460
28, 114, 455
28, 114, 460
29, 109, 447
29, 109, 448
29, 109, 439
29, 109, 441
30, 108, 433
30, 108, 440
30, 108, 430
30, 108, 439
31, 105, 435
31, 105, 432
31, 105, 421
31, 105, 426
32, 101, 415
32, 101, 419
32, 101, 406
32, 101, 410
33, 95, 396
33, 95, 395
33, 95, 383
33, 95, 386
34, 92, 377
34, 92, 379
34, 92, 370
34, 92, 374
35, 90, 366
35, 90, 372
35, 90, 359
35, 90, 366
36, 91, 359
36, 91, 369
36, 91, 359
36, 91, 368
37, 94, 367
37, 94, 376
37, 94, 371
37, 94, 383
38, 98, 381
38, 98, 390
38, 98, 383
38, 98, 398
39, 105, 398
39, 105, 411
39, 105, 409
39, 105, 426
40, 117, 432
40, 117, 449
40, 117, 453
40, 117, 472
41, 130, 489
41, 130, 504
41, 130, 507
41, 130, 527
42, 144, 547
42, 144, 563
42, 144, 566
42, 144, 583
43, 151, 591
43, 151, 602
43, 151, 604
43, 151, 611
44, 153, 615
44, 153, 617
44, 153, 611
44, 153, 617
45, 153, 620
45, 153, 620
45, 153, 613
45, 153, 615
46, 151, 615
46, 151, 614
46, 151, 604
46, 151, 607
47, 149, 607
47, 149, 606
47, 149, 595
47, 149, 603
48, 145, 600
48, 145, 597
48, 145, 583
48, 145, 583
49, 143, 588
49, 143, 583
49, 143, 572
49, 143, 579
0, 141, 575
0, 141, 577
0, 141, 563
0, 141, 568
1, 139, 568
1, 139, 568
1, 139, 556
1, 139, 559
2, 135, 551
2, 135, 553
2, 135, 541
2, 135, 545
3, 136, 540
3, 136, 545
3, 136, 534
3, 136, 551
4, 136, 537
4, 136, 540
4, 136, 529
4, 136, 551
5, 134, 527
5, 134, 529
5, 134, 518
5, 134, 542
6, 132, 519
6, 132, 524
6, 132, 512
6, 132, 534
7, 130, 518
7, 130, 527
7, 130, 516
7, 130, 527
8, 129, 512
8, 129, 519
8, 129, 508
8, 129, 522
9, 129, 513
9, 129, 530
9, 129, 514
9, 129, 521
10, 130, 514
10, 130, 527
10, 130, 514
10, 130, 526
11, 130, 519
11, 130, 527
11, 130, 516
11, 130, 526
12, 129, 520
12, 129, 527
12, 129, 519
12, 129, 521
13, 129, 512
13, 129, 523
13, 129, 512
13, 129, 522
14, 128, 528
14, 128, 524
14, 128, 512
14, 128, 514
15, 129, 529
15, 129, 519
15, 129, 515
15, 129, 522
16, 129, 535
16, 129, 518
16, 129, 508
16, 129, 520
16, 129, 535
16, 129, 518
16, 129, 508
16, 129, 520
18, 126, 524
18, 126, 511
18, 126, 504
18, 126, 510
19, 128, 503
19, 128, 505
19, 128, 499
19, 128, 517
20, 127, 496
20, 127, 500
20, 127, 495
20, 127, 512
21, 126, 494
21, 126, 504
21, 126, 498
21, 126, 508
22, 125, 496
22, 125, 504
22, 125, 495
22, 125, 505
23, 122, 496
23, 122, 503
23, 122, 489
23, 122, 489
24, 120, 476
24, 120, 487
24, 120, 479
24, 120, 486
25, 121, 483
25, 121, 492
25, 121, 487
25, 121, 489
26, 118, 480
26, 118, 478
26, 118, 470
26, 118, 478
27, 119, 475
27, 119, 486
27, 119, 476
27, 119, 483
28, 122, 487
28, 122, 487
28, 122, 479
28, 122, 495
29, 125, 492
29, 125, 496
29, 125, 492
29, 125, 505
30, 124, 500
30, 124, 510
30, 124, 493
30, 124, 502
31, 124, 497
31, 124, 499
31, 124, 496
31, 124, 503
32, 123, 494
32, 123, 495
32, 123, 494
32, 123, 496
33, 124, 496
33, 124, 496
33, 124, 495
33, 124, 500
34, 123, 503
34, 123, 507
34, 123, 492
34, 123, 499
35, 122, 497
35, 122, 503
35, 122, 488
35, 122, 495
36, 124, 492
36, 124, 503
36, 124, 487
36, 124, 502
37, 117, 510
37, 117, 520
37, 117, 492
37, 117, 468
38, 33, 400
38, 33, 283
38, 33, 187
38, 33, 135
39, 54, 159
39, 54, 195
39, 54, 211
39, 54, 222
40, 178, 315
40, 178, 423
40, 178, 579
40, 178, 716
41, 194, 862
41, 194, 927
41, 194, 856
41, 194, 779
42, 151, 716
42, 151, 675
42, 151, 635
42, 151, 604
43, 122, 560
43, 122, 527
43, 122, 496
43, 122, 488
44, 114, 476
44, 114, 470
44, 114, 458
44, 114, 458
45, 108, 451
45, 108, 449
45, 108, 435
45, 108, 438
46, 103, 435
46, 103, 425
46, 103, 415
46, 103, 419
47, 101, 423
47, 101, 417
47, 101, 409
47, 101, 406
48, 101, 407
48, 101, 414
48, 101, 405
48, 101, 408
49, 97, 400
49, 97, 401
49, 97, 390
49, 97, 392
0, 96, 387
0, 96, 391
0, 96, 376
0, 96, 389
1, 91, 370
1, 91, 369
1, 91, 355
1, 91, 371
2, 87, 352
2, 87, 355
2, 87, 335
2, 87, 353
3, 80, 335
3, 80, 331
3, 80, 320
3, 80, 327
4, 78, 308
4, 78, 316
4, 78, 307
4, 78, 318
5, 77, 307
5, 77, 317
5, 77, 310
5, 77, 313
6, 78, 310
6, 78, 319
6, 78, 311
6, 78, 318
7, 86, 318
7, 86, 332
7, 86, 330
7, 86, 348
8, 99, 342
8, 99, 370
8, 99, 379
8, 99, 403
9, 118, 411
9, 118, 440
9, 118, 442
9, 118, 476
10, 131, 485
10, 131, 507
10, 131, 512
10, 131, 531
11, 141, 551
11, 141, 553
11, 141, 567
11, 141, 568
12, 145, 583
12, 145, 575
12, 145, 574
12, 145, 585
13, 146, 591
13, 146, 583
13, 146, 574
13, 146, 588
14, 146, 595
14, 146, 582
14, 146, 570
14, 146, 591
14, 146, 595
14, 146, 582
14, 146, 570
14, 146, 591
16, 142, 568
16, 142, 582
16, 142, 590
16, 142, 568
17, 141, 576
17, 141, 574
17, 141, 579
17, 141, 564
18, 140, 561
18, 140, 561
18, 140, 568
18, 140, 560
19, 140, 563
19, 140, 570
19, 140, 563
19, 140, 560
20, 138, 561
20, 138, 567
20, 138, 556
20, 138, 554
21, 136, 553
21, 136, 551
21, 136, 547
21, 136, 547
22, 133, 543
22, 133, 545
22, 133, 531
22, 133, 536
23, 132, 539
23, 132, 543
23, 132, 530
23, 132, 535
24, 134, 535
24, 134, 535
24, 134, 530
24, 134, 540
25, 135, 540
25, 135, 547
25, 135, 543
25, 135, 543
26, 137, 547
26, 137, 550
26, 137, 551
26, 137, 553
26, 138, 551
26, 138, 553
26, 138, 551
26, 138, 557
27, 137, 551
27, 137, 556
27, 137, 545
27, 137, 553
28, 138, 554
28, 138, 563
28, 138, 554
28, 138, 558
29, 135, 556
29, 135, 551
29, 135, 540
29, 135, 547
30, 135, 550
30, 135, 551
30, 135, 542
30, 135, 547
31, 135, 547
31, 135, 548
31, 135, 540
31, 135, 543
32, 133, 543
32, 133, 542
32, 133, 534
32, 133, 536
33, 131, 536
33, 131, 536
33, 131, 528
33, 131, 527
34, 134, 538
34, 134, 538
34, 134, 532
34, 134, 541
35, 132, 532
35, 132, 532
35, 132, 524
35, 132, 533
36, 131, 527
36, 131, 527
36, 131, 516
36, 131, 529
37, 130, 523
37, 130, 523
37, 130, 510
37, 130, 524
38, 130, 534
38, 130, 524
38, 130, 520
38, 130, 527
39, 131, 531
39, 131, 531
39, 131, 523
39, 131, 531
40, 129, 526
40, 129, 526
40, 129, 516
40, 129, 520
41, 128, 522
41, 128, 524
41, 128, 509
41, 128, 519
42, 131, 515
42, 131, 522
42, 131, 516
42, 131, 529
43, 129, 524
43, 129, 526
43, 129, 516
43, 129, 516
44, 125, 509
44, 125, 506
44, 125, 498
44, 125, 507
45, 127, 511
45, 127, 516
45, 127, 508
45, 127, 511
46, 127, 513
46, 127, 519
46, 127, 508
46, 127, 510
47, 130, 514
47, 130, 522
47, 130, 527
47, 130, 523
48, 131, 523
48, 131, 528
48, 131, 537
48, 131, 525
49, 131, 521
49, 131, 532
49, 131, 531
49, 131, 527
0, 132, 531
0, 132, 537
0, 132, 530
0, 132, 531
1, 129, 535
1, 129, 532
1, 129, 529
1, 129, 519
2, 129, 519
2, 129, 525
2, 129, 516
2, 129, 520
3, 126, 516
3, 126, 522
3, 126, 509
3, 126, 505
4, 129, 518
4, 129, 521
4, 129, 512
4, 129, 520
5, 123, 540
5, 123, 556
5, 123, 532
5, 123, 495
6, 38, 440
6, 38, 323
6, 38, 206
6, 38, 153
7, 56, 203
7, 56, 243
7, 56, 231
7, 56, 227
8, 179, 295
8, 179, 398
8, 179, 553
8, 179, 723
10, 153, 716
10, 153, 671
10, 153, 636
10, 153, 615
11, 126, 545
11, 126, 523
11, 126, 499
11, 126, 508
12, 119, 479
12, 119, 476
12, 119, 468
12, 119, 480
13, 114, 460
13, 114, 462
13, 114, 448
13, 114, 463
14, 111, 440
14, 111, 442
14, 111, 432
14, 111, 449
15, 107, 427
15, 107, 432
15, 107, 419
15, 107, 434
16, 104, 428
16, 104, 429
16, 104, 415
16, 104, 422
17, 101, 410
17, 101, 410
17, 101, 401
17, 101, 410
18, 98, 401
18, 98, 405
18, 98, 393
18, 98, 399
19, 93, 383
19, 93, 388
19, 93, 376
19, 93, 374
20, 87, 366
20, 87, 359
20, 87, 347
20, 87, 352
21, 82, 335
21, 82, 339
21, 82, 327
21, 82, 334
22, 82, 335
22, 82, 332
22, 82, 327
22, 82, 332
23, 82, 332
23, 82, 327
23, 82, 319
23, 82, 332
24, 85, 327
24, 85, 339
24, 85, 327
24, 85, 345
25, 87, 335
25, 87, 345
25, 87, 341
25, 87, 355
26, 101, 364
26, 101, 377
26, 101, 386
26, 101, 411
27, 119, 426
27, 119, 444
27, 119, 455
27, 119, 483
28, 134, 497
28, 134, 519
28, 134, 524
28, 134, 543
29, 145, 551
29, 145, 566
29, 145, 572
29, 145, 587
30, 149, 606
30, 149, 600
30, 149, 595
30, 149, 601
31, 150, 601
31, 150, 604
31, 150, 600
31, 150, 607
32, 149, 608
32, 149, 613
32, 149, 591
32, 149, 600
33, 147, 603
33, 147, 601
33, 147, 591
33, 147, 591
34, 146, 591
34, 146, 588
34, 146, 582
34, 146, 591
35, 143, 582
35, 143, 579
35, 143, 572
35, 143, 572
36, 140, 575
36, 140, 572
36, 140, 558
36, 140, 565
37, 142, 567
37, 142, 571
37, 142, 556
37, 142, 572
38, 137, 566
38, 137, 564
38, 137, 557
38, 137, 551
39, 135, 551
39, 135, 553
39, 135, 543
39, 135, 543
40, 134, 547
40, 134, 547
40, 134, 537
40, 134, 540
41, 133, 539
41, 133, 541
41, 133, 529
41, 133, 539
42, 133, 539
42, 133, 536
42, 133, 525
42, 133, 537
43, 134, 525
43, 134, 538
43, 134, 529
43, 134, 543
44, 137, 527
44, 137, 547
44, 137, 526
44, 137, 555
45, 138, 531
45, 138, 535
45, 138, 528
45, 138, 558
46, 138, 532
46, 138, 537
46, 138, 532
46, 138, 558
47, 136, 536
47, 136, 542
47, 136, 531
47, 136, 548
48, 134, 534
48, 134, 540
48, 134, 529
48, 134, 543
49, 134, 527
49, 134, 531
49, 134, 528
49, 134, 542
0, 133, 530
0, 133, 541
0, 133, 528
0, 133, 537
1, 131, 527
1, 131, 534
1, 131, 523
1, 131, 529
2, 133, 526
2, 133, 537
2, 133, 524
2, 133, 539
3, 130, 531
3, 130, 534
3, 130, 515
3, 130, 527
4, 131, 528
4, 131, 523
4, 131, 520
4, 131, 529
5, 132, 535
5, 132, 531
5, 132, 518
5, 132, 534
6, 131, 540
6, 131, 534
6, 131, 524
6, 131, 530
7, 134, 547
7, 134, 526
7, 134, 520
7, 134, 541
7, 134, 547
7, 134, 526
7, 134, 520
7, 134, 541
9, 130, 540
9, 130, 524
9, 130, 523
9, 130, 527
10, 130, 515
10, 130, 524
10, 130, 509
10, 130, 527
11, 128, 507
11, 128, 507
11, 128, 500
11, 128, 519
12, 125, 495
12, 125, 502
12, 125, 490
12, 125, 507
13, 122, 494
13, 122, 502
13, 122, 492
13, 122, 490
14, 119, 476
14, 119, 481
14, 119, 481
14, 119, 481
15, 122, 479
15, 122, 494
15, 122, 491
15, 122, 489
16, 125, 489
16, 125, 502
16, 125, 493
16, 125, 504
17, 126, 494
17, 126, 509
17, 126, 498
17, 126, 509
18, 126, 505
18, 126, 508
18, 126, 507
18, 126, 510
19, 124, 503
19, 124, 510
19, 124, 499
19, 124, 499
20, 123, 494
20, 123, 497
20, 123, 492
20, 123, 499
21, 122, 499
21, 122, 494
21, 122, 483
21, 122, 493
22, 121, 497
22, 121, 492
22, 121, 483
22, 121, 491
23, 120, 481
23, 120, 483
23, 120, 474
23, 120, 487
24, 123, 479
24, 123, 486
24, 123, 478
24, 123, 496
25, 127, 520
25, 127, 534
25, 127, 524
25, 127, 509
26, 34, 438
26, 34, 327
26, 34, 198
26, 34, 136
27, 31, 156
27, 31, 166
27, 31, 152
27, 31, 127
28, 164, 199
28, 164, 306
28, 164, 479
28, 164, 661
29, 189, 847
29, 189, 904
29, 189, 827
29, 189, 759
30, 144, 703
30, 144, 645
30, 144, 607
30, 144, 576
31, 123, 539
31, 123, 521
31, 123, 497
31, 123, 493
32, 115, 476
32, 115, 473
32, 115, 463
32, 115, 463
33, 110, 457
33, 110, 454
33, 110, 435
33, 110, 445
34, 104, 440
34, 104, 435
34, 104, 419
34, 104, 419
35, 102, 415
35, 102, 419
35, 102, 403
35, 102, 415
36, 100, 408
36, 100, 402
36, 100, 400
36, 100, 404
37, 97, 400
37, 97, 401
37, 97, 388
37, 97, 391
38, 95, 393
38, 95, 392
38, 95, 381
38, 95, 383
39, 92, 380
39, 92, 383
39, 92, 368
39, 92, 369
40, 89, 364
40, 89, 369
40, 89, 356
40, 89, 362
41, 87, 352
41, 87, 352
41, 87, 335
41, 87, 352
42, 86, 335
42, 86, 335
42, 86, 335
42, 86, 351
43, 87, 341
43, 87, 344
43, 87, 323
43, 87, 355
44, 88, 335
44, 88, 341
44, 88, 339
44, 88, 358
45, 92, 352
45, 92, 366
45, 92, 355
45, 92, 375
46, 103, 371
46, 103, 400
46, 103, 393
46, 103, 419
47, 121, 432
47, 121, 451
47, 121, 454
47, 121, 489
48, 132, 487
48, 132, 517
48, 132, 511
48, 132, 535
49, 142, 542
49, 142, 555
49, 142, 561
49, 142, 575
0, 145, 577
0, 145, 597
0, 145, 579
0, 145, 587
1, 146, 588
1, 146, 587
1, 146, 588
1, 146, 590
2, 146, 601
2, 146, 588
2, 146, 575
2, 146, 589
3, 144, 598
3, 144, 588
3, 144, 575
3, 144, 583
4, 144, 598
4, 144, 577
4, 144, 568
4, 144, 583
4, 144, 598
4, 144, 577
4, 144, 568
4, 144, 583
6, 142, 588
6, 142, 569
6, 142, 564
6, 142, 572
7, 142, 558
7, 142, 567
7, 142, 561
7, 142, 572
8, 139, 553
8, 139, 553
8, 139, 551
8, 139, 563
9, 135, 543
9, 135, 547
9, 135, 537
9, 135, 547
10, 134, 531
10, 134, 539
10, 134, 527
10, 134, 543
11, 129, 521
11, 129, 536
11, 129, 515
11, 129, 523
12, 130, 515
12, 130, 526
12, 130, 519
12, 130, 525
13, 130, 515
13, 130, 524
13, 130, 519
13, 130, 524
14, 132, 520
14, 132, 526
14, 132, 525
14, 132, 532
15, 131, 526
15, 131, 532
15, 131, 526
15, 131, 530
16, 128, 532
16, 128, 524
16, 128, 512
16, 128, 518
17, 129, 514
17, 129, 522
17, 129, 514
17, 129, 523
18, 128, 513
18, 128, 518
18, 128, 512
18, 128, 514
19, 127, 511
19, 127, 513
19, 127, 503
19, 127, 515
20, 125, 500
20, 125, 512
20, 125, 500
20, 125, 505
21, 123, 499
21, 123, 503
21, 123, 492
21, 123, 496
22, 123, 491
22, 123, 499
22, 123, 487
22, 123, 499
23, 125, 492
23, 125, 501
23, 125, 495
23, 125, 505
24, 126, 501
24, 126, 509
24, 126, 500
24, 126, 508
25, 127, 505
25, 127, 511
25, 127, 506
25, 127, 513
26, 128, 511
26, 128, 514
26, 128, 506
26, 128, 516
27, 128, 515
27, 128, 519
27, 128, 508
27, 128, 516
28, 127, 518
28, 127, 514
28, 127, 504
28, 127, 512
29, 127, 514
29, 127, 516
29, 127, 506
29, 127, 515
30, 126, 513
30, 126, 512
30, 126, 503
30, 126, 508
31, 125, 508
31, 125, 508
31, 125, 500
31, 125, 502
32, 123, 505
32, 123, 506
32, 123, 495
32, 123, 499
33, 120, 501
33, 120, 502
33, 120, 485
33, 120, 483
34, 119, 478
34, 119, 481
34, 119, 473
34, 119, 483
35, 123, 487
35, 123, 494
35, 123, 486
35, 123, 496
36, 126, 497
36, 126, 506
36, 126, 499
36, 126, 508
37, 127, 502
37, 127, 507
37, 127, 499
37, 127, 513
38, 132, 507
38, 132, 516
38, 132, 508
38, 132, 534
39, 133, 518
39, 133, 521
39, 133, 512
39, 133, 537
40, 132, 513
40, 132, 518
40, 132, 511
40, 132, 534
41, 132, 517
41, 132, 521
41, 132, 512
41, 132, 534
42, 128, 517
42, 128, 523
42, 128, 513
42, 128, 519
43, 128, 508
43, 128, 517
43, 128, 507
43, 128, 516
44, 138, 509
44, 138, 525
44, 138, 524
44, 138, 556
45, 118, 556
45, 118, 551
45, 118, 519
45, 118, 472
46, 25, 361
46, 25, 244
46, 25, 124
46, 25, 102
47, 43, 94
47, 43, 94
47, 43, 70
47, 43, 177
48, 222, 321
48, 222, 510
48, 222, 679
48, 222, 894
49, 184, 931
49, 184, 838
49, 184, 767
49, 184, 739
0, 152, 728
0, 152, 671
0, 152, 629
0, 152, 611
1, 132, 595
1, 132, 561
1, 132, 532
1, 132, 531
1, 132, 595
1, 132, 561
1, 132, 532
1, 132, 531
3, 118, 494
3, 118, 473
3, 118, 474
3, 118, 476
4, 112, 454
4, 112, 454
4, 112, 444
4, 112, 455
5, 109, 435
5, 109, 440
5, 109, 425
5, 109, 440
6, 105, 422
6, 105, 427
6, 105, 415
6, 105, 425
7, 101, 407
7, 101, 413
7, 101, 399
7, 101, 408
8, 97, 396
8, 97, 399
8, 97, 389
8, 97, 395
9, 93, 383
9, 93, 388
9, 93, 374
9, 93, 376
10, 91, 373
10, 91, 376
10, 91, 364
10, 91, 371
11, 90, 366
11, 90, 367
11, 90, 355
11, 90, 364
12, 91, 358
12, 91, 367
12, 91, 359
12, 91, 369
13, 92, 368
13, 92, 377
13, 92, 364
13, 92, 374
14, 94, 372
14, 94, 379
14, 94, 371
14, 94, 383
15, 102, 381
15, 102, 394
15, 102, 392
15, 102, 413
16, 116, 419
16, 116, 444
16, 116, 451
16, 116, 471
17, 132, 483
17, 132, 506
17, 132, 507
17, 132, 533
18, 143, 540
18, 143, 558
18, 143, 560
18, 143, 576
19, 148, 579
19, 148, 591
19, 148, 591
19, 148, 596
20, 149, 596
20, 149, 601
20, 149, 595
20, 149, 601
21, 150, 601
21, 150, 604
21, 150, 601
21, 150, 601
22, 147, 600
22, 147, 604
22, 147, 591
22, 147, 595
23, 146, 595
23, 146, 591
23, 146, 582
23, 146, 588
24, 144, 583
24, 144, 583
24, 144, 583
24, 144, 579
25, 142, 575
25, 142, 577
25, 142, 568
25, 142, 571
26, 139, 570
26, 139, 568
26, 139, 558
26, 139, 560
27, 139, 560
27, 139, 563
27, 139, 560
27, 139, 563
28, 139, 561
28, 139, 564
28, 139, 555
28, 139, 560
29, 136, 556
29, 136, 556
29, 136, 543
29, 136, 550
30, 134, 547
30, 134, 543
30, 134, 535
30, 134, 540
31, 132, 540
31, 132, 549
31, 132, 531
31, 132, 533
32, 133, 533
32, 133, 536
32, 133, 529
32, 133, 537
33, 133, 532
33, 133, 538
33, 133, 528
33, 133, 537
34, 134, 535
34, 134, 541
34, 134, 528
34, 134, 541
35, 136, 536
35, 136, 540
35, 136, 530
35, 136, 551
36, 136, 531
36, 136, 532
36, 136, 523
36, 136, 551
37, 136, 531
37, 136, 534
37, 136, 524
37, 136, 549
38, 132, 527
38, 132, 526
38, 132, 516
38, 132, 533
39, 129, 512
39, 129, 516
39, 129, 508
39, 129, 521
40, 128, 502
40, 128, 513
40, 128, 506
40, 128, 516
41, 129, 507
41, 129, 521
41, 129, 512
41, 129, 520
42, 130, 511
42, 130, 519
42, 130, 512
42, 130, 524
43, 128, 513
43, 128, 525
43, 128, 513
43, 128, 518
44, 126, 511
44, 126, 515
44, 126, 504
44, 126, 511
45, 124, 505
45, 124, 503
45, 124, 490
45, 124, 501
46, 126, 515
46, 126, 513
46, 126, 500
46, 126, 510
47, 126, 524
47, 126, 519
47, 126, 499
47, 126, 508
48, 124, 505
48, 124, 498
48, 124, 489
48, 124, 502
48, 124, 505
48, 124, 498
48, 124, 489
48, 124, 502
0, 129, 519
0, 129, 512
0, 129, 513
0, 129, 522
1, 134, 525
1, 134, 523
1, 134, 515
1, 134, 542
2, 135, 524
2, 135, 527
2, 135, 520
2, 135, 547
3, 131, 517
3, 131, 526
3, 131, 515
3, 131, 529
4, 130, 513
4, 130, 522
4, 130, 511
4, 130, 527
5, 132, 516
5, 132, 528
5, 132, 521
5, 132, 534
6, 132, 531
6, 132, 537
6, 132, 531
6, 132, 533
7, 131, 526
7, 131, 530
7, 131, 524
7, 131, 527
8, 137, 522
8, 137, 537
8, 137, 540
8, 137, 555
9, 95, 547
9, 95, 523
9, 95, 470
9, 95, 383
10, 53, 262
10, 53, 185
10, 53, 179
10, 53, 217
11, 96, 230
11, 96, 254
11, 96, 280
11, 96, 391
12, 229, 515
12, 229, 668
12, 229, 786
12, 229, 921
13, 172, 895
13, 172, 817
13, 172, 732
13, 172, 689
14, 135, 651
14, 135, 625
14, 135, 572
14, 135, 542
15, 118, 508
15, 118, 496
15, 118, 475
15, 118, 478
16, 115, 472
16, 115, 476
16, 115, 460
16, 115, 460
17, 110, 455
17, 110, 455
17, 110, 441
17, 110, 444
18, 107, 433
18, 107, 439
18, 107, 428
18, 107, 433
19, 107, 424
19, 107, 430
19, 107, 423
19, 107, 432
20, 105, 432
20, 105, 438
20, 105, 423
20, 105, 427
21, 103, 426
21, 103, 423
21, 103, 414
21, 103, 417
22, 102, 417
22, 102, 419
22, 102, 414
22, 102, 410
23, 98, 407
23, 98, 408
23, 98, 395
23, 98, 395
24, 91, 399
24, 91, 390
24, 91, 370
24, 91, 367
25, 85, 352
25, 85, 355
25, 85, 335
25, 85, 344
26, 82, 335
26, 82, 339
26, 82, 327
26, 82, 332
27, 83, 332
27, 83, 339
27, 83, 331
27, 83, 339
28, 86, 342
28, 86, 344
28, 86, 339
28, 86, 348
29, 96, 359
29, 96, 366
29, 96, 376
29, 96, 388
30, 111, 395
30, 111, 415
30, 111, 428
30, 111, 451
31, 130, 472
31, 130, 494
31, 130, 505
31, 130, 524
32, 143, 534
32, 143, 560
32, 143, 565
32, 143, 579
33, 155, 583
33, 155, 598
33, 155, 595
33, 155, 627
34, 160, 615
34, 160, 621
34, 160, 614
34, 160, 646
35, 158, 631
35, 158, 622
35, 158, 612
35, 158, 637
36, 154, 615
36, 154, 617
36, 154, 600
36, 154, 620
37, 151, 591
37, 151, 609
37, 151, 598
37, 151, 608
38, 147, 591
38, 147, 601
38, 147, 591
38, 147, 591
39, 146, 585
39, 146, 588
39, 146, 577
39, 146, 590
40, 144, 579
40, 144, 588
40, 144, 572
40, 144, 583
41, 142, 575
41, 142, 577
41, 142, 571
41, 142, 574
42, 140, 568
42, 140, 568
42, 140, 556
42, 140, 565
43, 138, 561
43, 138, 563
43, 138, 551
43, 138, 558
44, 138, 567
44, 138, 558
44, 138, 549
44, 138, 558
45, 135, 563
45, 135, 551
45, 135, 541
45, 135, 545
46, 135, 556
46, 135, 545
46, 135, 537
46, 135, 547
46, 135, 556
46, 135, 545
46, 135, 537
46, 135, 547
48, 136, 560
48, 136, 545
48, 136, 541
48, 136, 549
49, 142, 547
49, 142, 558
49, 142, 551
49, 142, 575
0, 143, 556
0, 143, 561
0, 143, 558
0, 143, 579
1, 139, 555
1, 139, 551
1, 139, 542
1, 139, 560
2, 139, 543
2, 139, 550
2, 139, 539
2, 139, 561
3, 138, 543
3, 138, 551
3, 138, 547
3, 138, 556
4, 135, 545
4, 135, 550
4, 135, 543
4, 135, 545
5, 136, 540
5, 136, 545
5, 136, 536
5, 136, 549
6, 135, 536
6, 135, 550
6, 135, 540
6, 135, 547
7, 133, 543
7, 133, 543
7, 133, 534
7, 133, 536
8, 133, 536
8, 133, 537
8, 133, 526
8, 133, 539
9, 128, 535
9, 128, 529
9, 128, 513
9, 128, 518
10, 130, 510
10, 130, 518
10, 130, 511
10, 130, 525
11, 129, 521
11, 129, 532
11, 129, 515
11, 129, 523
12, 128, 507
12, 128, 511
12, 128, 499
12, 128, 516
13, 130, 504
13, 130, 518
13, 130, 512
13, 130, 524
14, 132, 522
14, 132, 531
14, 132, 521
14, 132, 535
15, 132, 527
15, 132, 537
15, 132, 529
15, 132, 534
16, 133, 531
16, 133, 543
16, 133, 531
16, 133, 539
17, 132, 529
17, 132, 535
17, 132, 522
17, 132, 533
18, 130, 528
18, 130, 529
18, 130, 520
18, 130, 527
19, 129, 528
19, 129, 530
19, 129, 521
19, 129, 517
20, 127, 515
20, 127, 518
20, 127, 506
20, 127, 512
21, 125, 507
21, 125, 515
21, 125, 504
21, 125, 502
22, 128, 509
22, 128, 511
22, 128, 507
22, 128, 517
23, 126, 539
23, 126, 551
23, 126, 523
23, 126, 505
24, 39, 428
24, 39, 307
24, 39, 199
24, 39, 159
25, 54, 193
25, 54, 221
25, 54, 230
25, 54, 219
26, 178, 300
26, 178, 412
26, 178, 577
26, 178, 716
27, 191, 887
27, 191, 927
27, 191, 844
27, 191, 767
28, 150, 711
28, 150, 675
28, 150, 639
28, 150, 600
29, 127, 556
29, 127, 540
29, 127, 508
29, 127, 511
30, 122, 496
30, 122, 498
30, 122, 481
30, 122, 494
31, 119, 480
31, 119, 471
31, 119, 463
31, 119, 483
32, 114, 460
32, 114, 459
32, 114, 444
32, 114, 463
33, 111, 449
33, 111, 444
33, 111, 435
33, 111, 451
34, 110, 435
34, 110, 444
34, 110, 430
34, 110, 447
35, 107, 436
35, 107, 445
35, 107, 426
35, 107, 435
36, 103, 415
36, 103, 423
36, 103, 419
36, 103, 415
37, 100, 409
37, 100, 411
37, 100, 401
37, 100, 403
38, 92, 385
38, 92, 389
38, 92, 371
38, 92, 372
39, 87, 358
39, 87, 362
39, 87, 347
39, 87, 352
40, 83, 339
40, 83, 344
40, 83, 334
40, 83, 335
41, 83, 335
41, 83, 334
41, 83, 327
41, 83, 339
42, 88, 345
42, 88, 344
42, 88, 340
42, 88, 359
43, 93, 358
43, 93, 363
43, 93, 362
43, 93, 378
43, 93, 358
43, 93, 363
43, 93, 362
43, 93, 378
45, 128, 468
45, 128, 475
45, 128, 494
45, 128, 518
46, 150, 543
46, 150, 563
46, 150, 568
46, 150, 604
47, 157, 591
47, 157, 615
47, 157, 613
47, 157, 633
48, 157, 609
48, 157, 624
48, 157, 619
48, 157, 634
49, 152, 611
49, 152, 623
49, 152, 611
49, 152, 614
0, 150, 607
0, 150, 611
0, 150, 607
0, 150, 601
1, 147, 600
1, 147, 605
1, 147, 600
1, 147, 591
2, 147, 591
2, 147, 596
2, 147, 588
2, 147, 591
3, 143, 587
3, 143, 587
3, 143, 574
3, 143, 575
4, 140, 570
4, 140, 574
4, 140, 563
4, 140, 566
5, 138, 561
5, 138, 563
5, 138, 551
5, 138, 558
6, 135, 550
6, 135, 551
6, 135, 541
6, 135, 545
7, 134, 536
7, 134, 540
7, 134, 532
7, 134, 543
8, 132, 537
8, 132, 537
8, 132, 528
8, 132, 534
9, 132, 529
9, 132, 530
9, 132, 519
9, 132, 535
10, 132, 527
10, 132, 538
10, 132, 531
10, 132, 534
11, 132, 531
11, 132, 531
11, 132, 520
11, 132, 534
12, 132, 527
12, 132, 535
12, 132, 529
12, 132, 535
13, 130, 525
13, 130, 530
13, 130, 520
13, 130, 525
14, 131, 527
14, 131, 522
14, 131, 523
14, 131, 531
15, 132, 523
15, 132, 531
15, 132, 521
15, 132, 532
16, 130, 529
16, 130, 531
16, 130, 523
16, 130, 527
17, 131, 527
17, 131, 540
17, 131, 523
17, 131, 528
18, 131, 527
18, 131, 531
18, 131, 522
18, 131, 530
19, 133, 536
19, 133, 536
19, 133, 537
19, 133, 536
20, 133, 542
20, 133, 543
20, 133, 533
20, 133, 537
21, 136, 542
21, 136, 549
21, 136, 537
21, 136, 551
22, 133, 555
22, 133, 545
22, 133, 527
22, 133, 536
23, 131, 534
23, 131, 536
23, 131, 523
23, 131, 531
24, 130, 535
24, 130, 531
24, 130, 523
24, 130, 527
25, 129, 527
25, 129, 527
25, 129, 519
25, 129, 523
26, 131, 509
26, 131, 518
26, 131, 512
26, 131, 531
27, 132, 522
27, 132, 527
27, 132, 517
27, 132, 534
28, 132, 512
28, 132, 510
28, 132, 508
28, 132, 534
29, 133, 515
29, 133, 522
29, 133, 512
29, 133, 536
30, 134, 512
30, 134, 520
30, 134, 518
30, 134, 540
31, 131, 525
31, 131, 524
31, 131, 517
31, 131, 531
32, 132, 521
32, 132, 531
32, 132, 523
32, 132, 534
33, 132, 525
33, 132, 541
33, 132, 531
33, 132, 535
34, 133, 527
34, 133, 536
34, 133, 531
34, 133, 537
35, 133, 524
35, 133, 536
35, 133, 520
35, 133, 536
36, 131, 534
36, 131, 532
36, 131, 525
36, 131, 531
37, 130, 535
37, 130, 531
37, 130, 520
37, 130, 526
38, 130, 535
38, 130, 527
38, 130, 512
38, 130, 524
39, 141, 541
39, 141, 555
39, 141, 563
39, 141, 568
40, 66, 554
40, 66, 481
40, 66, 370
40, 66, 264
40, 66, 554
40, 66, 481
40, 66, 370
40, 66, 264
42, 119, 127
42, 119, 199
42, 119, 298
42, 119, 480
43, 201, 825
43, 201, 924
43, 201, 857
43, 201, 807
44, 156, 713
44, 156, 675
44, 156, 637
44, 156, 624
45, 129, 566
45, 129, 547
45, 129, 520
45, 129, 516
46, 119, 492
46, 119, 492
46, 119, 476
46, 119, 480
47, 115, 467
47, 115, 475
47, 115, 460
47, 115, 463
48, 111, 458
48, 111, 455
48, 111, 444
48, 111, 444
49, 107, 435
49, 107, 438
49, 107, 428
49, 107, 432
0, 104, 423
0, 104, 433
0, 104, 419
0, 104, 422
1, 101, 415
1, 101, 419
1, 101, 403
1, 101, 410
2, 97, 403
2, 97, 400
2, 97, 389
2, 97, 395
3, 94, 388
3, 94, 391
3, 94, 375
3, 94, 381
4, 90, 369
4, 90, 369
4, 90, 360
4, 90, 364
5, 86, 356
5, 86, 357
5, 86, 344
5, 86, 350
6, 83, 335
6, 83, 348
6, 83, 331
6, 83, 339
7, 85, 335
7, 85, 342
7, 85, 332
7, 85, 344
8, 87, 335
8, 87, 351
8, 87, 344
8, 87, 354
9, 93, 352
9, 93, 363
9, 93, 361
9, 93, 378
10, 107, 381
10, 107, 401
10, 107, 409
10, 107, 433
11, 126, 447
11, 126, 470
11, 126, 483
11, 126, 511
12, 142, 531
12, 142, 549
12, 142, 555
12, 142, 575
13, 152, 583
13, 152, 597
13, 152, 600
13, 152, 612
14, 154, 620
14, 154, 620
14, 154, 615
14, 154, 620
15, 153, 621
15, 153, 623
15, 153, 611
15, 153, 616
16, 151, 616
16, 151, 618
16, 151, 605
16, 151, 611
17, 152, 614
17, 152, 614
17, 152, 608
17, 152, 614
18, 149, 611
18, 149, 607
18, 149, 595
18, 149, 601
19, 146, 600
19, 146, 591
19, 146, 583
19, 146, 588
20, 144, 591
20, 144, 586
20, 144, 577
20, 144, 583
21, 143, 583
21, 143, 583
21, 143, 574
21, 143, 576
22, 142, 576
22, 142, 575
22, 142, 564
22, 142, 572
23, 140, 568
23, 140, 569
23, 140, 558
23, 140, 566
24, 140, 560
24, 140, 567
24, 140, 560
24, 140, 567
25, 141, 558
25, 141, 560
25, 141, 549
25, 141, 568
26, 141, 551
26, 141, 556
26, 141, 543
26, 141, 568
27, 142, 551
27, 142, 553
27, 142, 543
27, 142, 572
28, 137, 543
28, 137, 545
28, 137, 533
28, 137, 553
29, 132, 529
29, 132, 537
29, 132, 524
29, 132, 534
30, 132, 527
30, 132, 535
30, 132, 523
30, 132, 534
31, 132, 524
31, 132, 536
31, 132, 525
31, 132, 532
32, 131, 523
32, 131, 532
32, 131, 525
32, 131, 531
33, 132, 523
33, 132, 531
33, 132, 523
33, 132, 532
34, 130, 527
34, 130, 531
34, 130, 523
34, 130, 526
35, 128, 520
35, 128, 522
35, 128, 512
35, 128, 516
36, 128, 530
36, 128, 521
36, 128, 512
36, 128, 517
37, 128, 524
37, 128, 517
37, 128, 512
37, 128, 516
38, 128, 527
38, 128, 513
38, 128, 503
38, 128, 516
38, 128, 527
38, 128, 513
38, 128, 503
38, 128, 516
40, 125, 517
40, 125, 499
40, 125, 503
40, 125, 507
41, 126, 495
41, 126, 499
41, 126, 492
41, 126, 510
42, 123, 480
42, 123, 476
42, 123, 475
42, 123, 499
43, 125, 483
43, 125, 499
43, 125, 489
43, 125, 507
44, 127, 500
44, 127, 511
44, 127, 499
44, 127, 512
45, 130, 506
45, 130, 514
45, 130, 515
45, 130, 524
46, 128, 510
46, 128, 519
46, 128, 515
46, 128, 516
47, 126, 507
47, 126, 522
47, 126, 507
47, 126, 507
48, 126, 501
48, 126, 508
48, 126, 507
48, 126, 507
49, 125, 497
49, 125, 504
49, 125, 495
49, 125, 504
0, 125, 498
0, 125, 504
0, 125, 492
0, 125, 505
1, 122, 496
1, 122, 497
1, 122, 483
1, 122, 493
2, 119, 489
2, 119, 487
2, 119, 478
2, 119, 483
3, 130, 487
3, 130, 514
3, 130, 526
3, 130, 521
4, 70, 495
4, 70, 472
4, 70, 397
4, 70, 280
5, 4, 152
5, 4, 56
5, 4, 1
5, 4, 21
6, 83, 1
6, 83, 63
6, 83, 167
6, 83, 339
7, 207, 508
7, 207, 716
7, 207, 862
7, 207, 828
8, 168, 767
8, 168, 730
8, 168, 696
8, 168, 675
9, 137, 623
9, 137, 602
9, 137, 568
9, 137, 548
10, 121, 530
10, 121, 513
10, 121, 490
10, 121, 487
11, 115, 483
11, 115, 478
11, 115, 463
11, 115, 460
12, 111, 459
12, 111, 457
12, 111, 454
12, 111, 447
13, 107, 446
13, 107, 442
13, 107, 428
13, 107, 432
14, 103, 432
14, 103, 430
14, 103, 417
14, 103, 415
15, 102, 412
15, 102, 415
15, 102, 405
15, 102, 412
16, 99, 406
16, 99, 415
16, 99, 392
16, 99, 400
17, 93, 393
17, 93, 391
17, 93, 372
17, 93, 376
18, 89, 374
18, 89, 369
18, 89, 357
18, 89, 363
19, 85, 361
19, 85, 359
19, 85, 348
19, 85, 342
20, 84, 340
20, 84, 348
20, 84, 335
20, 84, 340
21, 85, 346
21, 85, 353
21, 85, 339
21, 85, 345
22, 88, 339
22, 88, 348
22, 88, 335
22, 88, 358
23, 93, 355
23, 93, 353
23, 93, 352
23, 93, 377
24, 102, 374
24, 102, 388
24, 102, 390
24, 102, 415
25, 116, 415
25, 116, 433
25, 116, 439
25, 116, 470
26, 130, 472
26, 130, 490
26, 130, 491
26, 130, 525
27, 142, 525
27, 142, 547
27, 142, 551
27, 142, 574
28, 150, 575
28, 150, 591
28, 150, 595
28, 150, 604
29, 150, 599
29, 150, 604
29, 150, 595
29, 150, 605
30, 149, 591
30, 149, 595
30, 149, 591
30, 149, 602
31, 151, 598
31, 151, 604
31, 151, 595
31, 151, 608
32, 146, 598
32, 146, 595
32, 146, 583
32, 146, 590
33, 143, 604
33, 143, 586
33, 143, 575
33, 143, 579
34, 139, 588
34, 139, 565
34, 139, 556
34, 139, 556
35, 136, 563
35, 136, 551
35, 136, 540
35, 136, 551
36, 136, 560
36, 136, 543
36, 136, 540
36, 136, 551
36, 136, 560
36, 136, 543
36, 136, 540
36, 136, 551
38, 136, 562
38, 136, 545
38, 136, 543
38, 136, 550
39, 136, 532
39, 136, 536
39, 136, 527
39, 136, 551
40, 135, 528
40, 135, 532
40, 135, 528
40, 135, 547
41, 133, 529
41, 133, 537
41, 133, 524
41, 133, 536
42, 131, 521
42, 131, 527
42, 131, 517
42, 131, 528
43, 130, 516
43, 130, 529
43, 130, 526
43, 130, 523
44, 130, 515
44, 130, 528
44, 130, 524
44, 130, 523
45, 129, 519
45, 129, 526
45, 129, 518
45, 129, 520
46, 129, 513
46, 129, 518
46, 129, 514
46, 129, 520
47, 128, 518
47, 128, 523
47, 128, 508
47, 128, 519
48, 131, 513
48, 131, 519
48, 131, 513
48, 131, 529
49, 130, 520
49, 130, 524
49, 130, 518
49, 130, 525
0, 132, 521
0, 132, 523
0, 132, 521
0, 132, 533
1, 131, 526
1, 131, 531
1, 131, 528
1, 131, 526
2, 131, 524
2, 131, 537
2, 131, 520
2, 131, 531
3, 131, 526
3, 131, 527
3, 131, 523
3, 131, 530
4, 129, 521
4, 129, 527
4, 129, 516
4, 129, 519
5, 129, 511
5, 129, 521
5, 129, 516
5, 129, 520
6, 129, 518
6, 129, 527
6, 129, 516
6, 129, 520
7, 127, 513
7, 127, 508
7, 127, 502
7, 127, 514
8, 130, 520
8, 130, 527
8, 130, 515
8, 130, 525
9, 131, 527
9, 131, 524
9, 131, 518
9, 131, 530
10, 134, 529
10, 134, 532
10, 134, 531
10, 134, 543
11, 134, 543
11, 134, 543
11, 134, 530
11, 134, 540
12, 133, 536
12, 133, 540
12, 133, 531
12, 133, 539
13, 131, 537
13, 131, 538
13, 131, 527
13, 131, 531
14, 131, 531
14, 131, 531
14, 131, 525
14, 131, 527
15, 128, 531
15, 128, 523
15, 128, 512
15, 128, 519
16, 130, 524
16, 130, 526
16, 130, 515
16, 130, 525
17, 132, 527
17, 132, 540
17, 132, 523
17, 132, 535
18, 133, 553
18, 133, 569
18, 133, 555
18, 133, 534
19, 47, 476
19, 47, 383
19, 47, 267
19, 47, 189
20, 62, 206
20, 62, 246
20, 62, 239
20, 62, 254
21, 176, 278
21, 176, 367
21, 176, 510
21, 176, 711
22, 214, 828
22, 214, 956
22, 214, 910
22, 214, 857
23, 159, 760
23, 159, 711
23, 159, 662
23, 159, 639
24, 129, 572
24, 129, 550
24, 129, 525
24, 129, 516
25, 122, 496
25, 122, 502
25, 122, 485
25, 122, 492
26, 114, 463
26, 114, 479
26, 114, 459
26, 114, 462
27, 111, 453
27, 111, 454
27, 111, 447
27, 111, 449
28, 106, 435
28, 106, 441
28, 106, 427
28, 106, 428
29, 102, 422
29, 102, 421
29, 102, 410
29, 102, 415
30, 100, 408
30, 100, 411
30, 100, 400
30, 100, 402
31, 97, 403
31, 97, 399
31, 97, 388
31, 97, 392
32, 91, 388
32, 91, 386
32, 91, 366
32, 91, 369
33, 85, 365
33, 85, 358
33, 85, 342
33, 85, 347
33, 85, 365
33, 85, 358
33, 85, 342
33, 85, 347
35, 79, 321
35, 79, 316
35, 79, 316
35, 79, 319
36, 82, 308
36, 82, 323
36, 82, 312
36, 82, 332
37, 82, 312
37, 82, 320
37, 82, 319
37, 82, 334
38, 87, 326
38, 87, 339
38, 87, 334
38, 87, 355
39, 99, 359
39, 99, 374
39, 99, 378
39, 99, 402
40, 120, 419
40, 120, 444
40, 120, 461
40, 120, 487
41, 139, 502
41, 139, 528
41, 139, 540
41, 139, 560
42, 146, 571
42, 146, 579
42, 146, 583
42, 146, 591
43, 149, 591
43, 149, 604
43, 149, 591
43, 149, 603
44, 149, 600
44, 149, 603
44, 149, 591
44, 149, 600
45, 149, 595
45, 149, 595
45, 149, 583
45, 149, 600
46, 144, 587
46, 144, 588
46, 144, 576
46, 144, 583
47, 143, 579
47, 143, 579
47, 143, 572
47, 143, 575
48, 141, 572
48, 141, 575
48, 141, 566
48, 141, 569
49, 140, 561
49, 140, 566
49, 140, 560
49, 140, 563
0, 138, 564
0, 138, 556
0, 138, 547
0, 138, 556
1, 138, 554
1, 138, 560
1, 138, 550
1, 138, 556
2, 135, 551
2, 135, 555
2, 135, 543
2, 135, 543
3, 133, 533
3, 133, 536
3, 133, 531
3, 133, 539
4, 133, 536
4, 133, 540
4, 133, 531
4, 133, 536
5, 132, 535
5, 132, 536
5, 132, 529
5, 132, 531
6, 132, 533
6, 132, 531
6, 132, 526
6, 132, 533
7, 131, 537
7, 131, 537
7, 131, 524
7, 131, 525
8, 130, 526
8, 130, 525
8, 130, 516
8, 130, 526
9, 132, 528
9, 132, 530
9, 132, 526
9, 132, 534
10, 131, 532
10, 131, 538
10, 131, 523
10, 131, 530
11, 130, 530
11, 130, 525
11, 130, 521
11, 130, 524
12, 130, 526
12, 130, 531
12, 130, 519
12, 130, 524
13, 131, 531
13, 131, 535
13, 131, 524
13, 131, 531
14, 131, 530
14, 131, 534
14, 131, 526
14, 131, 526
15, 130, 527
15, 130, 529
15, 130, 519
15, 130, 527
16, 131, 525
16, 131, 536
16, 131, 517
16, 131, 531
